Energy(MeV) Sferica_Fluence(cm^-2*MeV^-1)
5.000000e-02 5.197046e+11
5.100225e-02 5.068206e+11
5.202458e-02 4.944881e+11
5.306741e-02 4.825715e+11
5.413114e-02 4.707054e+11
5.521620e-02 4.594151e+11
5.632300e-02 4.483483e+11
5.745199e-02 4.374362e+11
5.860361e-02 4.267813e+11
5.977832e-02 4.163550e+11
6.097657e-02 4.062641e+11
6.219884e-02 3.964573e+11
6.344561e-02 3.868332e+11
6.471737e-02 3.775139e+11
6.601463e-02 3.683046e+11
6.733789e-02 3.595633e+11
6.868767e-02 3.507319e+11
7.006451e-02 3.420555e+11
7.146895e-02 3.336905e+11
7.290154e-02 3.255501e+11
7.436284e-02 3.177328e+11
7.585344e-02 3.099372e+11
7.737392e-02 3.024558e+11
7.892487e-02 2.951358e+11
8.050691e-02 2.878124e+11
8.212067e-02 2.808223e+11
8.376677e-02 2.741224e+11
8.544587e-02 2.674328e+11
8.715862e-02 2.610604e+11
8.890571e-02 2.546665e+11
9.068782e-02 2.485185e+11
9.250565e-02 2.423927e+11
9.435992e-02 2.365192e+11
9.625136e-02 2.307318e+11
9.818071e-02 2.251385e+11
1.001487e-01 2.195995e+11
1.021562e-01 2.142508e+11
1.042039e-01 2.090525e+11
1.062927e-01 2.040157e+11
1.084233e-01 1.990316e+11
1.105966e-01 1.941798e+11
1.128135e-01 1.894193e+11
1.150749e-01 1.849191e+11
1.173816e-01 1.803623e+11
1.197345e-01 1.760203e+11
1.221345e-01 1.717877e+11
1.245827e-01 1.676026e+11
1.270800e-01 1.634424e+11
1.296273e-01 1.594199e+11
1.322256e-01 1.554966e+11
1.348761e-01 1.516875e+11
1.375797e-01 1.479856e+11
1.403374e-01 1.443737e+11
1.431505e-01 1.408783e+11
1.460199e-01 1.374162e+11
1.489469e-01 1.340786e+11
1.519325e-01 1.308301e+11
1.549780e-01 1.276205e+11
1.580845e-01 1.245201e+11
1.612533e-01 1.215512e+11
1.644856e-01 1.185825e+11
1.677827e-01 1.157519e+11
1.711459e-01 1.129181e+11
1.745765e-01 1.101506e+11
1.780759e-01 1.074607e+11
1.816454e-01 1.048448e+11
1.852865e-01 1.022909e+11
1.890005e-01 9.981780e+10
1.927890e-01 9.738381e+10
1.966535e-01 9.499910e+10
2.005954e-01 9.269708e+10
2.046163e-01 9.043643e+10
2.087178e-01 8.823930e+10
2.129015e-01 8.606843e+10
2.171691e-01 8.392574e+10
2.215223e-01 8.189631e+10
2.259627e-01 7.989924e+10
2.304921e-01 7.794560e+10
2.351123e-01 7.604424e+10
2.398251e-01 7.415640e+10
2.446324e-01 7.232233e+10
2.495360e-01 7.054095e+10
2.545379e-01 6.882116e+10
2.596401e-01 6.709413e+10
2.648446e-01 6.542616e+10
2.701534e-01 6.382199e+10
2.755686e-01 6.224627e+10
2.810923e-01 6.071144e+10
2.867268e-01 5.921852e+10
2.924742e-01 5.776377e+10
2.983368e-01 5.636762e+10
3.043170e-01 5.497554e+10
3.104170e-01 5.364132e+10
3.166393e-01 5.230915e+10
3.229863e-01 5.102425e+10
3.294605e-01 4.972909e+10
3.360645e-01 4.850115e+10
3.428009e-01 4.731150e+10
3.496723e-01 4.615813e+10
3.566815e-01 4.500550e+10
3.638311e-01 4.389102e+10
3.711241e-01 4.282386e+10
3.785633e-01 4.177879e+10
3.861515e-01 4.074141e+10
3.938919e-01 3.972076e+10
4.017874e-01 3.874681e+10
4.098412e-01 3.779074e+10
4.180565e-01 3.686574e+10
4.264364e-01 3.595588e+10
4.349843e-01 3.506058e+10
4.437035e-01 3.419718e+10
4.525975e-01 3.334760e+10
4.616698e-01 3.250883e+10
4.709239e-01 3.170587e+10
4.803635e-01 3.091173e+10
4.899924e-01 3.013727e+10
4.998143e-01 2.939474e+10
5.098330e-01 2.866232e+10
5.200526e-01 2.794687e+10
5.304770e-01 2.725138e+10
5.411103e-01 2.657905e+10
5.519569e-01 2.592773e+10
5.630208e-01 2.527357e+10
5.743065e-01 2.464637e+10
5.858184e-01 2.403031e+10
5.975611e-01 2.342083e+10
6.095392e-01 2.282731e+10
6.217573e-01 2.224975e+10
6.342204e-01 2.168923e+10
6.469333e-01 2.116192e+10
6.599011e-01 2.063758e+10
6.731287e-01 2.010833e+10
6.866215e-01 1.958844e+10
7.003848e-01 1.908609e+10
7.144240e-01 1.860927e+10
7.287445e-01 1.814452e+10
7.433522e-01 1.768460e+10
7.582526e-01 1.724058e+10
7.734517e-01 1.679617e+10
7.889555e-01 1.636698e+10
8.047701e-01 1.594741e+10
8.209016e-01 1.554634e+10
8.373565e-01 1.515014e+10
8.541413e-01 1.476616e+10
8.712625e-01 1.438581e+10
8.887268e-01 1.402320e+10
9.065413e-01 1.366494e+10
9.247129e-01 1.331579e+10
9.432487e-01 1.297102e+10
9.621560e-01 1.263352e+10
9.814423e-01 1.231387e+10
1.001115e+00 1.200016e+10
1.021183e+00 1.169118e+10
1.041652e+00 1.138743e+10
1.062532e+00 1.109311e+10
1.083830e+00 1.080760e+10
1.105556e+00 1.052803e+10
1.127716e+00 1.025523e+10
1.150321e+00 9.991876e+09
1.173379e+00 9.730664e+09
1.196900e+00 9.476889e+09
1.220892e+00 9.231269e+09
1.245364e+00 8.991516e+09
1.270327e+00 8.757479e+09
1.295791e+00 8.526944e+09
1.321765e+00 8.300542e+09
1.348260e+00 8.081535e+09
1.375286e+00 7.869193e+09
1.402853e+00 7.662276e+09
1.430973e+00 7.460753e+09
1.459657e+00 7.262384e+09
1.488916e+00 7.072981e+09
1.518761e+00 6.885651e+09
1.549204e+00 6.702708e+09
1.580258e+00 6.524717e+09
1.611934e+00 6.350323e+09
1.644245e+00 6.179788e+09
1.677204e+00 6.014092e+09
1.710823e+00 5.852622e+09
1.745117e+00 5.695137e+09
1.780097e+00 5.541106e+09
1.815779e+00 5.391149e+09
1.852176e+00 5.246838e+09
1.889303e+00 5.107204e+09
1.927174e+00 4.969056e+09
1.965804e+00 4.833180e+09
2.005209e+00 4.700643e+09
2.045403e+00 4.573022e+09
2.086403e+00 4.448739e+09
2.128224e+00 4.326636e+09
2.170885e+00 4.206970e+09
2.214400e+00 4.090452e+09
2.258787e+00 3.977795e+09
2.304064e+00 3.868313e+09
2.350249e+00 3.761495e+09
2.397360e+00 3.658733e+09
2.445415e+00 3.557586e+09
2.494433e+00 3.459354e+09
2.544434e+00 3.361264e+09
2.595437e+00 3.266375e+09
2.647462e+00 3.173151e+09
2.700530e+00 3.084678e+09
2.754662e+00 2.997515e+09
2.809879e+00 2.912794e+09
2.866203e+00 2.829937e+09
2.923656e+00 2.748552e+09
2.982260e+00 2.668922e+09
3.042039e+00 2.592015e+09
3.103017e+00 2.516823e+09
3.165216e+00 2.444278e+09
3.228663e+00 2.373431e+09
3.293381e+00 2.304210e+09
3.359397e+00 2.236936e+09
3.426736e+00 2.172187e+09
3.495424e+00 2.108904e+09
3.565490e+00 2.046667e+09
3.636960e+00 1.986214e+09
3.709862e+00 1.926360e+09
3.784226e+00 1.869053e+09
3.860081e+00 1.813358e+09
3.937456e+00 1.758552e+09
4.016382e+00 1.705400e+09
4.096890e+00 1.653641e+09
4.179012e+00 1.603083e+09
4.262780e+00 1.554242e+09
4.348227e+00 1.506508e+09
4.435387e+00 1.460641e+09
4.524294e+00 1.415141e+09
4.614983e+00 1.371376e+09
4.707490e+00 1.328470e+09
4.801851e+00 1.286244e+09
4.898104e+00 1.245365e+09
4.996286e+00 1.205565e+09
5.096436e+00 1.166973e+09
5.198594e+00 1.129539e+09
5.302799e+00 1.093000e+09
5.409093e+00 1.057517e+09
5.517518e+00 1.022715e+09
5.628116e+00 9.892614e+08
5.740932e+00 9.565704e+08
5.856008e+00 9.252679e+08
5.973391e+00 8.941874e+08
6.093127e+00 8.634426e+08
6.215264e+00 8.342493e+08
6.339848e+00 8.058424e+08
6.466930e+00 7.785013e+08
6.596559e+00 7.520630e+08
6.728787e+00 7.254601e+08
6.863665e+00 6.999422e+08
7.001246e+00 6.754939e+08
7.141586e+00 6.513983e+08
7.284738e+00 6.288398e+08
7.430760e+00 6.065447e+08
7.579709e+00 5.846233e+08
7.731644e+00 5.639632e+08
7.886624e+00 5.436351e+08
8.044711e+00 5.238636e+08
8.205967e+00 5.045163e+08
8.370455e+00 4.861089e+08
8.538240e+00 4.683194e+08
8.709388e+00 4.507005e+08
8.883967e+00 4.337552e+08
9.062045e+00 4.172424e+08
9.243693e+00 4.011836e+08
9.428983e+00 3.857950e+08
9.617986e+00 3.706245e+08
9.810778e+00 3.562193e+08
1.000743e+01 3.422090e+08
1.020803e+01 3.287325e+08
1.041265e+01 3.155673e+08
1.062137e+01 3.026315e+08
1.083428e+01 2.905960e+08
1.105145e+01 2.785113e+08
1.127297e+01 2.670529e+08
1.149894e+01 2.560553e+08
1.172944e+01 2.452277e+08
1.196455e+01 2.349621e+08
1.220438e+01 2.248799e+08
1.244902e+01 2.150624e+08
1.269856e+01 2.058382e+08
1.295310e+01 1.968473e+08
1.321274e+01 1.884099e+08
1.347759e+01 1.800465e+08
1.374775e+01 1.719758e+08
1.402332e+01 1.642535e+08
1.430442e+01 1.569472e+08
1.459115e+01 1.497917e+08
1.488362e+01 1.428816e+08
1.518197e+01 1.363089e+08
1.548629e+01 1.299790e+08
1.579671e+01 1.239206e+08
1.611335e+01 1.179868e+08
1.643634e+01 1.122247e+08
1.676581e+01 1.068160e+08
1.710188e+01 1.016086e+08
1.744468e+01 9.660070e+07
1.779436e+01 9.178298e+07
1.815105e+01 8.729062e+07
1.851488e+01 8.290282e+07
1.888601e+01 7.872145e+07
1.926458e+01 7.465982e+07
1.965074e+01 7.087883e+07
2.004464e+01 6.727445e+07
2.044643e+01 6.381574e+07
2.085628e+01 6.051639e+07
2.127434e+01 5.734572e+07
2.170078e+01 5.439048e+07
2.213577e+01 5.156079e+07
2.257948e+01 4.883110e+07
2.303209e+01 4.625316e+07
2.349376e+01 4.382350e+07
2.396469e+01 4.150420e+07
2.444506e+01 3.930497e+07
2.493506e+01 3.720785e+07
2.543488e+01 3.526337e+07
2.594472e+01 3.338329e+07
2.646478e+01 3.163474e+07
2.699527e+01 2.995433e+07
2.753639e+01 2.836697e+07
2.808835e+01 2.686164e+07
2.865138e+01 2.544434e+07
2.922570e+01 2.410396e+07
2.981152e+01 2.282355e+07
3.040909e+01 2.160123e+07
3.101864e+01 2.046477e+07
3.164041e+01 1.935657e+07
3.227464e+01 1.832301e+07
3.292158e+01 1.732684e+07
3.358149e+01 1.642548e+07
3.425463e+01 1.553787e+07
3.494126e+01 1.469685e+07
3.564165e+01 1.390896e+07
3.635609e+01 1.316569e+07
3.708484e+01 1.246335e+07
3.782820e+01 1.179303e+07
3.858647e+01 1.116096e+07
3.935993e+01 1.056538e+07
4.014890e+01 1.000154e+07
4.095368e+01 9.461574e+06
4.177459e+01 8.952862e+06
4.261196e+01 8.472571e+06
4.346611e+01 8.012520e+06
4.433739e+01 7.582931e+06
4.522613e+01 7.175393e+06
4.613268e+01 6.783708e+06
4.705741e+01 6.415526e+06
4.800067e+01 6.066074e+06
4.896284e+01 5.730200e+06
4.994430e+01 5.415225e+06
5.094543e+01 5.120408e+06
5.196662e+01 4.842293e+06
5.300829e+01 4.576509e+06
5.407084e+01 4.323041e+06
5.515468e+01 4.086146e+06
5.626026e+01 3.860357e+06
5.738799e+01 3.647542e+06
5.853833e+01 3.448997e+06
5.971172e+01 3.257018e+06
6.090864e+01 3.076514e+06
6.212955e+01 2.903820e+06
6.337493e+01 2.743028e+06
6.464528e+01 2.590786e+06
6.594109e+01 2.446253e+06
6.726287e+01 2.309473e+06
6.861115e+01 2.178545e+06
6.998645e+01 2.055991e+06
7.138933e+01 1.940758e+06
7.282032e+01 1.832987e+06
7.428000e+01 1.728599e+06
7.576894e+01 1.630776e+06
7.728772e+01 1.538833e+06
7.883694e+01 1.451087e+06
8.041722e+01 1.368030e+06
8.202918e+01 1.290364e+06
8.367345e+01 1.216470e+06
8.535068e+01 1.146213e+06
8.706153e+01 1.080540e+06
8.880667e+01 1.018615e+06
9.058679e+01 9.596823e+05
9.240260e+01 9.044040e+05
9.425480e+01 8.514788e+05
9.614413e+01 8.022296e+05
9.807133e+01 7.563821e+05
1.000372e+02 7.125964e+05
1.020424e+02 6.709781e+05
1.040878e+02 6.314465e+05
1.061743e+02 5.945892e+05
1.083025e+02 5.595215e+05
1.104734e+02 5.269586e+05
1.126879e+02 4.961251e+05
1.149467e+02 4.667217e+05
1.172508e+02 4.390039e+05
1.196011e+02 4.126037e+05
1.219985e+02 3.878611e+05
1.244439e+02 3.644744e+05
1.269384e+02 3.422784e+05
1.294828e+02 3.215761e+05
1.320783e+02 3.017040e+05
1.347258e+02 2.832537e+05
1.374264e+02 2.662060e+05
1.401811e+02 2.502427e+05
1.429910e+02 2.348855e+05
1.458573e+02 2.204526e+05
1.487810e+02 2.068834e+05
1.517633e+02 1.941309e+05
1.548053e+02 1.818789e+05
1.579084e+02 1.706424e+05
1.610737e+02 1.600678e+05
1.643024e+02 1.500332e+05
1.675958e+02 1.405121e+05
1.709552e+02 1.317338e+05
1.743820e+02 1.233797e+05
1.778775e+02 1.154229e+05
1.814430e+02 1.080573e+05
1.850801e+02 1.010626e+05
1.887900e+02 9.454473e+04
1.925743e+02 8.838220e+04
1.964344e+02 8.257711e+04
2.003719e+02 7.720469e+04
2.043883e+02 7.203979e+04
2.084853e+02 6.732683e+04
2.126644e+02 6.294134e+04
2.169272e+02 5.869238e+04
2.212755e+02 5.476752e+04
2.257109e+02 5.103318e+04
2.302353e+02 4.757684e+04
2.348503e+02 4.439574e+04
2.395579e+02 4.135871e+04
2.443598e+02 3.854574e+04
2.492580e+02 3.585088e+04
2.542544e+02 3.336650e+04
2.593509e+02 3.106754e+04
2.645495e+02 2.888497e+04
2.698524e+02 2.687852e+04
2.752616e+02 2.493012e+04
2.807792e+02 2.318616e+04
2.864074e+02 2.153025e+04
2.921484e+02 1.999506e+04
2.980045e+02 1.856363e+04
3.039780e+02 1.722038e+04
3.100712e+02 1.595881e+04
3.162865e+02 1.479848e+04
3.226265e+02 1.371716e+04
3.290935e+02 1.267715e+04
3.356901e+02 1.171292e+04
3.424190e+02 1.083615e+04
3.492828e+02 1.002189e+04
3.562841e+02 9.263619e+03
3.634258e+02 8.574587e+03
3.707107e+02 7.924279e+03
3.781415e+02 7.319204e+03
3.857213e+02 6.743241e+03
3.934531e+02 6.226223e+03
4.013398e+02 5.737966e+03
4.093847e+02 5.287144e+03
4.175907e+02 4.873125e+03
4.259613e+02 4.480546e+03
4.344997e+02 4.128963e+03
4.432092e+02 3.796103e+03
4.520933e+02 3.484887e+03
4.611555e+02 3.191699e+03
4.703993e+02 2.926258e+03
4.798284e+02 2.684890e+03
4.894465e+02 2.459544e+03
4.992574e+02 2.255284e+03
5.092650e+02 2.063210e+03
5.194732e+02 1.887809e+03
5.298860e+02 1.726604e+03
5.405075e+02 1.578818e+03
5.513420e+02 1.441634e+03
5.623936e+02 1.319020e+03
5.736667e+02 1.202663e+03
5.851658e+02 1.096055e+03
5.968954e+02 1.000872e+03
6.088601e+02 9.118593e+02
6.210647e+02 8.303139e+02
6.335139e+02 7.548454e+02
6.462126e+02 6.863534e+02
6.591659e+02 6.220125e+02
6.723788e+02 5.643184e+02
6.858566e+02 5.103692e+02
6.996046e+02 4.621506e+02
7.136281e+02 4.189426e+02
7.279327e+02 3.786905e+02
7.425240e+02 3.415435e+02
7.574079e+02 3.085558e+02
7.725901e+02 2.783108e+02
7.880766e+02 2.500672e+02
8.038735e+02 2.252762e+02
8.199871e+02 2.023987e+02
8.364237e+02 1.816041e+02
8.531897e+02 1.628981e+02
8.702918e+02 1.458028e+02
8.877368e+02 1.305641e+02
9.055314e+02 1.167901e+02
9.236827e+02 1.040568e+02
9.421978e+02 9.251092e+01
9.610841e+02 8.222396e+01
9.803490e+02 7.289130e+01
1.000000e+03 6.442424e+01
