Energy(MeV)   SpectralFluence(cm^-2 MeV^-1)
5.000000e-02 1.955156e+10
5.168383e-02 1.893226e+10
5.342437e-02 1.833253e+10
5.522353e-02 1.775176e+10
5.708327e-02 1.718935e+10
5.900565e-02 1.664471e+10
6.099276e-02 1.611729e+10
6.304680e-02 1.560653e+10
6.517000e-02 1.511193e+10
6.736471e-02 1.463295e+10
6.963333e-02 1.416911e+10
7.197835e-02 1.371994e+10
7.440234e-02 1.328496e+10
7.690796e-02 1.286373e+10
7.949797e-02 1.245582e+10
8.217519e-02 1.206080e+10
8.494258e-02 1.167826e+10
8.780317e-02 1.130781e+10
9.076008e-02 1.094908e+10
9.381658e-02 1.060168e+10
9.697601e-02 1.026526e+10
1.002418e-01 9.939475e+09
1.036177e-01 9.623987e+09
1.071072e-01 9.318471e+09
1.107142e-01 9.022610e+09
1.144426e-01 8.736101e+09
1.182967e-01 8.458647e+09
1.222805e-01 8.189963e+09
1.263985e-01 7.929770e+09
1.306552e-01 7.677801e+09
1.350553e-01 7.433796e+09
1.396035e-01 7.197503e+09
1.443048e-01 6.968678e+09
1.491646e-01 6.747085e+09
1.541879e-01 6.532495e+09
1.593805e-01 6.324688e+09
1.647479e-01 6.123448e+09
1.702960e-01 5.928569e+09
1.760310e-01 5.739849e+09
1.819592e-01 5.557093e+09
1.880869e-01 5.380113e+09
1.944211e-01 5.208727e+09
2.009685e-01 5.042757e+09
2.077365e-01 4.882033e+09
2.147324e-01 4.726388e+09
2.219638e-01 4.575662e+09
2.294388e-01 4.429699e+09
2.371656e-01 4.288350e+09
2.451525e-01 4.151467e+09
2.534084e-01 4.018911e+09
2.619424e-01 3.890544e+09
2.707637e-01 3.766234e+09
2.798822e-01 3.645852e+09
2.893077e-01 3.529275e+09
2.990506e-01 3.416382e+09
3.091216e-01 3.307056e+09
3.195318e-01 3.201186e+09
3.302926e-01 3.098662e+09
3.414157e-01 2.999377e+09
3.529135e-01 2.903230e+09
3.647984e-01 2.810122e+09
3.770836e-01 2.719956e+09
3.897825e-01 2.632640e+09
4.029091e-01 2.548083e+09
4.164778e-01 2.466198e+09
4.305033e-01 2.386902e+09
4.450013e-01 2.310111e+09
4.599874e-01 2.235747e+09
4.754783e-01 2.163733e+09
4.914908e-01 2.093995e+09
5.080426e-01 2.026461e+09
5.251518e-01 1.961061e+09
5.428371e-01 1.897728e+09
5.611181e-01 1.836397e+09
5.800147e-01 1.777004e+09
5.995476e-01 1.719488e+09
6.197384e-01 1.663790e+09
6.406091e-01 1.609852e+09
6.621827e-01 1.557619e+09
6.844828e-01 1.507037e+09
7.075339e-01 1.458054e+09
7.313613e-01 1.410619e+09
7.559911e-01 1.364683e+09
7.814504e-01 1.320200e+09
8.077670e-01 1.277122e+09
8.349699e-01 1.235407e+09
8.630889e-01 1.195010e+09
8.921549e-01 1.155890e+09
9.221997e-01 1.118008e+09
9.532563e-01 1.081323e+09
9.853588e-01 1.045797e+09
1.018542e+00 1.011396e+09
1.052844e+00 9.780819e+08
1.088300e+00 9.458217e+08
1.124950e+00 9.145818e+08
1.162835e+00 8.843301e+08
1.201995e+00 8.550353e+08
1.242474e+00 8.266674e+08
1.284317e+00 7.991970e+08
1.327568e+00 7.725959e+08
1.372276e+00 7.468367e+08
1.418490e+00 7.218928e+08
1.466260e+00 6.977386e+08
1.515639e+00 6.743492e+08
1.566680e+00 6.517004e+08
1.619441e+00 6.297690e+08
1.673978e+00 6.085324e+08
1.730352e+00 5.879687e+08
1.788625e+00 5.680567e+08
1.848860e+00 5.487760e+08
1.911123e+00 5.301066e+08
1.975484e+00 5.120295e+08
2.042011e+00 4.945258e+08
2.110780e+00 4.775777e+08
2.181864e+00 4.611677e+08
2.255341e+00 4.452790e+08
2.331294e+00 4.298950e+08
2.409804e+00 4.150001e+08
2.490958e+00 4.005789e+08
2.574845e+00 3.866165e+08
2.661558e+00 3.730986e+08
2.751190e+00 3.600113e+08
2.843841e+00 3.473410e+08
2.939612e+00 3.350749e+08
3.038609e+00 3.232002e+08
3.140939e+00 3.117048e+08
3.246715e+00 3.005767e+08
3.356054e+00 2.898047e+08
3.469074e+00 2.793775e+08
3.585901e+00 2.692844e+08
3.706663e+00 2.595152e+08
3.831491e+00 2.500596e+08
3.960522e+00 2.409080e+08
4.093900e+00 2.320510e+08
4.231769e+00 2.234795e+08
4.374280e+00 2.151846e+08
4.521592e+00 2.071578e+08
4.673864e+00 1.993908e+08
4.831264e+00 1.918756e+08
4.993965e+00 1.846045e+08
5.162145e+00 1.775701e+08
5.335989e+00 1.707649e+08
5.515687e+00 1.641821e+08
5.701437e+00 1.578149e+08
5.893443e+00 1.516566e+08
6.091914e+00 1.457009e+08
6.297070e+00 1.399416e+08
6.509134e+00 1.343729e+08
6.728340e+00 1.289889e+08
6.954928e+00 1.237840e+08
7.189147e+00 1.187529e+08
7.431253e+00 1.138903e+08
7.681513e+00 1.091912e+08
7.940201e+00 1.046507e+08
8.207601e+00 1.002640e+08
8.484005e+00 9.602658e+07
8.769719e+00 9.193401e+07
9.065053e+00 8.798197e+07
9.370334e+00 8.416632e+07
9.685896e+00 8.048303e+07
1.001208e+01 7.692820e+07
1.034926e+01 7.349807e+07
1.069779e+01 7.018898e+07
1.105805e+01 6.699741e+07
1.143045e+01 6.391991e+07
1.181539e+01 6.095318e+07
1.221329e+01 5.809400e+07
1.262460e+01 5.533926e+07
1.304975e+01 5.268593e+07
1.348922e+01 5.013109e+07
1.394350e+01 4.767189e+07
1.441307e+01 4.530559e+07
1.489845e+01 4.302950e+07
1.540018e+01 4.084104e+07
1.591881e+01 3.873768e+07
1.645490e+01 3.671698e+07
1.700905e+01 3.477654e+07
1.758185e+01 3.291407e+07
1.817395e+01 3.112730e+07
1.878599e+01 2.941405e+07
1.941864e+01 2.777219e+07
2.007260e+01 2.619962e+07
2.074857e+01 2.469432e+07
2.144732e+01 2.325432e+07
2.216959e+01 2.187767e+07
2.291619e+01 2.056250e+07
2.368793e+01 1.930695e+07
2.448566e+01 1.810923e+07
2.531026e+01 1.696755e+07
2.616262e+01 1.588019e+07
2.704369e+01 1.484546e+07
2.795443e+01 1.386167e+07
2.889585e+01 1.292721e+07
2.986896e+01 1.204045e+07
3.087485e+01 1.119983e+07
3.191461e+01 1.040378e+07
3.298939e+01 9.650778e+06
3.410036e+01 8.939321e+06
3.524875e+01 8.267924e+06
3.643581e+01 7.635128e+06
3.766285e+01 7.039493e+06
3.893121e+01 6.479601e+06
4.024228e+01 5.954055e+06
4.159751e+01 5.461476e+06
4.299837e+01 5.000507e+06
4.444641e+01 4.569810e+06
4.594322e+01 4.168068e+06
4.749044e+01 3.793983e+06
4.908976e+01 3.446278e+06
5.074294e+01 3.123700e+06
5.245179e+01 2.825015e+06
5.421819e+01 2.549012e+06
5.604408e+01 2.294506e+06
5.793146e+01 2.060336e+06
5.988240e+01 1.845364e+06
6.189904e+01 1.648482e+06
6.398359e+01 1.468609e+06
6.613834e+01 1.304692e+06
6.836566e+01 1.155710e+06
7.066799e+01 1.020672e+06
7.304785e+01 8.986190e+05
7.550786e+01 7.886283e+05
7.805072e+01 6.898097e+05
8.067920e+01 6.013094e+05
8.339621e+01 5.223098e+05
8.620472e+01 4.520310e+05
8.910781e+01 3.897306e+05
9.210866e+01 3.347046e+05
9.521057e+01 2.862876e+05
9.841695e+01 2.438528e+05
1.017313e+02 2.068124e+05
1.051573e+02 1.746165e+05
1.086986e+02 1.467537e+05
1.123592e+02 1.227496e+05
1.161431e+02 1.021665e+05
1.200544e+02 8.460238e+04
1.240975e+02 6.968948e+04
1.282767e+02 5.709336e+04
1.325966e+02 4.651125e+04
1.370620e+02 3.767055e+04
1.416778e+02 3.032721e+04
1.464490e+02 2.426395e+04
1.513809e+02 1.928848e+04
1.564789e+02 1.523168e+04
1.617486e+02 1.194576e+04
1.671958e+02 9.302416e+03
1.728264e+02 7.191004e+03
1.786466e+02 5.516807e+03
1.846628e+02 4.199326e+03
1.908817e+02 3.170664e+03
1.973099e+02 2.374002e+03
2.039547e+02 1.762177e+03
2.108232e+02 1.296370e+03
2.179230e+02 9.449060e+02
2.252619e+02 6.821701e+02
2.328480e+02 4.878103e+02
2.406895e+02 3.473462e+02
2.487952e+02 2.467330e+02
2.571738e+02 1.748274e+02
2.658345e+02 1.235586e+02
2.747869e+02 8.709234e+01
2.840408e+02 6.121976e+01
2.936064e+02 4.291090e+01
3.034941e+02 2.998930e+01
3.137148e+02 2.089512e+01
3.242796e+02 1.451304e+01
3.352003e+02 1.004758e+01
3.464887e+02 6.932761e+00
3.581573e+02 4.766984e+00
3.702189e+02 3.266052e+00
3.826866e+02 2.229420e+00
3.955742e+02 1.515989e+00
4.088958e+02 1.026784e+00
4.226661e+02 6.926016e-01
4.369001e+02 4.652101e-01
4.516134e+02 3.111102e-01
4.668222e+02 2.071164e-01
4.825433e+02 1.372411e-01
4.987937e+02 9.050125e-02
5.155914e+02 5.938203e-02
5.329548e+02 3.876257e-02
5.509030e+02 2.516817e-02
5.694556e+02 1.625153e-02
5.886329e+02 1.043420e-02
6.084561e+02 6.659840e-03
6.289469e+02 4.224947e-03
6.501277e+02 2.663439e-03
6.720219e+02 1.668153e-03
6.946533e+02 1.037781e-03
7.180470e+02 6.411409e-04
7.422284e+02 3.932580e-04
7.672242e+02 2.394268e-04
7.930617e+02 1.446540e-04
8.197694e+02 8.670374e-05
8.473765e+02 5.154412e-05
8.759133e+02 3.038325e-05
9.054112e+02 1.775328e-05
9.359024e+02 1.027980e-05
9.674205e+02 5.896832e-06
1.000000e+03 3.349998e-06
