Energy(MeV)   SpectralFluence(cm^-2 MeV^-1)
5.000000e-02 7.256082e+10
5.168383e-02 6.947017e+10
5.342437e-02 6.651093e+10
5.522353e-02 6.367752e+10
5.708327e-02 6.096459e+10
5.900565e-02 5.836703e+10
6.099276e-02 5.587992e+10
6.304680e-02 5.349858e+10
6.517000e-02 5.121850e+10
6.736471e-02 4.903539e+10
6.963333e-02 4.694513e+10
7.197835e-02 4.494376e+10
7.440234e-02 4.302751e+10
7.690796e-02 4.119275e+10
7.949797e-02 3.943604e+10
8.217519e-02 3.775404e+10
8.494258e-02 3.614359e+10
8.780317e-02 3.460163e+10
9.076008e-02 3.312527e+10
9.381658e-02 3.171171e+10
9.697601e-02 3.035829e+10
1.002418e-01 2.906244e+10
1.036177e-01 2.782172e+10
1.071072e-01 2.663378e+10
1.107142e-01 2.549639e+10
1.144426e-01 2.440739e+10
1.182967e-01 2.336473e+10
1.222805e-01 2.236643e+10
1.263985e-01 2.141062e+10
1.306552e-01 2.049548e+10
1.350553e-01 1.961928e+10
1.396035e-01 1.878038e+10
1.443048e-01 1.797718e+10
1.491646e-01 1.720817e+10
1.541879e-01 1.647189e+10
1.593805e-01 1.576696e+10
1.647479e-01 1.509203e+10
1.702960e-01 1.444584e+10
1.760310e-01 1.382716e+10
1.819592e-01 1.323482e+10
1.880869e-01 1.266771e+10
1.944211e-01 1.212474e+10
2.009685e-01 1.160490e+10
2.077365e-01 1.110720e+10
2.147324e-01 1.063070e+10
2.219638e-01 1.017450e+10
2.294388e-01 9.737728e+09
2.371656e-01 9.319567e+09
2.451525e-01 8.919223e+09
2.534084e-01 8.535939e+09
2.619424e-01 8.168989e+09
2.707637e-01 7.817678e+09
2.798822e-01 7.481341e+09
2.893077e-01 7.159343e+09
2.990506e-01 6.851072e+09
3.091216e-01 6.555945e+09
3.195318e-01 6.273404e+09
3.302926e-01 6.002912e+09
3.414157e-01 5.743958e+09
3.529135e-01 5.496051e+09
3.647984e-01 5.258721e+09
3.770836e-01 5.031517e+09
3.897825e-01 4.814011e+09
4.029091e-01 4.605788e+09
4.164778e-01 4.406454e+09
4.305033e-01 4.215631e+09
4.450013e-01 4.032957e+09
4.599874e-01 3.858086e+09
4.754783e-01 3.690685e+09
4.914908e-01 3.530436e+09
5.080426e-01 3.377036e+09
5.251518e-01 3.230192e+09
5.428371e-01 3.089627e+09
5.611181e-01 2.955072e+09
5.800147e-01 2.826273e+09
5.995476e-01 2.702983e+09
6.197384e-01 2.584970e+09
6.406091e-01 2.472008e+09
6.621827e-01 2.363882e+09
6.844828e-01 2.260387e+09
7.075339e-01 2.161325e+09
7.313613e-01 2.066508e+09
7.559911e-01 1.975755e+09
7.814504e-01 1.888894e+09
8.077670e-01 1.805758e+09
8.349699e-01 1.726188e+09
8.630889e-01 1.650034e+09
8.921549e-01 1.577150e+09
9.221997e-01 1.507396e+09
9.532563e-01 1.440640e+09
9.853588e-01 1.376753e+09
1.018542e+00 1.315613e+09
1.052844e+00 1.257104e+09
1.088300e+00 1.201114e+09
1.124950e+00 1.147535e+09
1.162835e+00 1.096264e+09
1.201995e+00 1.047204e+09
1.242474e+00 1.000260e+09
1.284317e+00 9.553417e+08
1.327568e+00 9.123631e+08
1.372276e+00 8.712417e+08
1.418490e+00 8.318982e+08
1.466260e+00 7.942570e+08
1.515639e+00 7.582455e+08
1.566680e+00 7.237942e+08
1.619441e+00 6.908368e+08
1.673978e+00 6.593094e+08
1.730352e+00 6.291513e+08
1.788625e+00 6.003041e+08
1.848860e+00 5.727118e+08
1.911123e+00 5.463211e+08
1.975484e+00 5.210806e+08
2.042011e+00 4.969414e+08
2.110780e+00 4.738565e+08
2.181864e+00 4.517810e+08
2.255341e+00 4.306718e+08
2.331294e+00 4.104878e+08
2.409804e+00 3.911895e+08
2.490958e+00 3.727391e+08
2.574845e+00 3.551004e+08
2.661558e+00 3.382389e+08
2.751190e+00 3.221214e+08
2.843841e+00 3.067161e+08
2.939612e+00 2.919928e+08
3.038609e+00 2.779222e+08
3.140939e+00 2.644765e+08
3.246715e+00 2.516291e+08
3.356054e+00 2.393545e+08
3.469074e+00 2.276281e+08
3.585901e+00 2.164266e+08
3.706663e+00 2.057276e+08
3.831491e+00 1.955096e+08
3.960522e+00 1.857521e+08
4.093900e+00 1.764354e+08
4.231769e+00 1.675406e+08
4.374280e+00 1.590498e+08
4.521592e+00 1.509457e+08
4.673864e+00 1.432117e+08
4.831264e+00 1.358320e+08
4.993965e+00 1.287915e+08
5.162145e+00 1.220756e+08
5.335989e+00 1.156705e+08
5.515687e+00 1.095628e+08
5.701437e+00 1.037398e+08
5.893443e+00 9.818927e+07
6.091914e+00 9.289954e+07
6.297070e+00 8.785941e+07
6.509134e+00 8.305816e+07
6.728340e+00 7.848553e+07
6.954928e+00 7.413167e+07
7.189147e+00 6.998717e+07
7.431253e+00 6.604299e+07
7.681513e+00 6.229050e+07
7.940201e+00 5.872142e+07
8.207601e+00 5.532780e+07
8.484005e+00 5.210204e+07
8.769719e+00 4.903686e+07
9.065053e+00 4.612526e+07
9.370334e+00 4.336057e+07
9.685896e+00 4.073636e+07
1.001208e+01 3.824649e+07
1.034926e+01 3.588506e+07
1.069779e+01 3.364641e+07
1.105805e+01 3.152512e+07
1.143045e+01 2.951601e+07
1.181539e+01 2.761407e+07
1.221329e+01 2.581453e+07
1.262460e+01 2.411279e+07
1.304975e+01 2.250446e+07
1.348922e+01 2.098530e+07
1.394350e+01 1.955126e+07
1.441307e+01 1.819844e+07
1.489845e+01 1.692310e+07
1.540018e+01 1.572166e+07
1.591881e+01 1.459066e+07
1.645490e+01 1.352678e+07
1.700905e+01 1.252686e+07
1.758185e+01 1.158782e+07
1.817395e+01 1.070672e+07
1.878599e+01 9.880752e+06
1.941864e+01 9.107190e+06
2.007260e+01 8.383428e+06
2.074857e+01 7.706956e+06
2.144732e+01 7.075363e+06
2.216959e+01 6.486332e+06
2.291619e+01 5.937635e+06
2.368793e+01 5.431294e+06
2.448566e+01 4.968106e+06
2.531026e+01 4.544395e+06
2.616262e+01 4.156798e+06
2.704369e+01 3.802237e+06
2.795443e+01 3.477899e+06
2.889585e+01 3.181208e+06
2.986896e+01 2.909808e+06
3.087485e+01 2.661545e+06
3.191461e+01 2.434447e+06
3.298939e+01 2.226711e+06
3.410036e+01 2.036686e+06
3.524875e+01 1.862864e+06
3.643581e+01 1.703864e+06
3.766285e+01 1.558423e+06
3.893121e+01 1.425384e+06
4.024228e+01 1.303692e+06
4.159751e+01 1.192378e+06
4.299837e+01 1.090559e+06
4.444641e+01 9.974250e+05
4.594322e+01 9.122358e+05
4.749044e+01 8.343140e+05
4.908976e+01 7.630403e+05
5.074294e+01 6.978478e+05
5.245179e+01 6.382181e+05
5.421819e+01 5.836770e+05
5.604408e+01 5.337904e+05
5.793146e+01 4.881617e+05
5.988240e+01 4.464277e+05
6.189904e+01 4.082562e+05
6.398359e+01 3.733435e+05
6.613834e+01 3.414116e+05
6.836566e+01 3.122063e+05
7.066799e+01 2.854950e+05
7.304785e+01 2.610650e+05
7.550786e+01 2.387216e+05
7.805072e+01 2.182869e+05
8.067920e+01 1.995980e+05
8.339621e+01 1.825060e+05
8.620472e+01 1.668745e+05
8.910781e+01 1.525790e+05
9.210866e+01 1.395054e+05
9.521057e+01 1.275494e+05
9.841695e+01 1.166156e+05
1.017313e+02 1.066168e+05
1.051573e+02 9.747312e+04
1.086986e+02 8.911158e+04
1.123592e+02 8.146537e+04
1.161431e+02 7.447340e+04
1.200544e+02 6.807981e+04
1.240975e+02 6.223346e+04
1.282767e+02 5.688763e+04
1.325966e+02 5.199953e+04
1.370620e+02 4.753007e+04
1.416778e+02 4.344345e+04
1.464490e+02 3.970697e+04
1.513809e+02 3.629069e+04
1.564789e+02 3.316723e+04
1.617486e+02 3.031157e+04
1.671958e+02 2.770079e+04
1.728264e+02 2.531395e+04
1.786466e+02 2.313189e+04
1.846628e+02 2.113710e+04
1.908817e+02 1.931355e+04
1.973099e+02 1.764658e+04
2.039547e+02 1.612279e+04
2.108232e+02 1.472993e+04
2.179230e+02 1.345677e+04
2.252619e+02 1.229306e+04
2.328480e+02 1.122944e+04
2.406895e+02 1.025732e+04
2.487952e+02 9.368856e+03
2.571738e+02 8.556884e+03
2.658345e+02 7.814842e+03
2.747869e+02 7.136733e+03
2.840408e+02 6.517072e+03
2.936064e+02 5.950843e+03
3.034941e+02 5.433461e+03
3.137148e+02 4.960730e+03
3.242796e+02 4.528817e+03
3.352003e+02 4.134215e+03
3.464887e+02 3.773718e+03
3.581573e+02 3.444393e+03
3.702189e+02 3.143561e+03
3.826866e+02 2.868771e+03
3.955742e+02 2.617781e+03
4.088958e+02 2.388543e+03
4.226661e+02 2.179184e+03
4.369001e+02 1.987990e+03
4.516134e+02 1.813398e+03
4.668222e+02 1.653975e+03
4.825433e+02 1.508413e+03
4.987937e+02 1.375516e+03
5.155914e+02 1.254190e+03
5.329548e+02 1.143437e+03
5.509030e+02 1.042341e+03
5.694556e+02 9.500696e+02
5.886329e+02 8.658577e+02
6.084561e+02 7.890083e+02
6.289469e+02 7.188836e+02
6.501277e+02 6.549011e+02
6.720219e+02 5.965280e+02
6.946533e+02 5.432778e+02
7.180470e+02 4.947056e+02
7.422284e+02 4.504051e+02
7.672242e+02 4.100049e+02
7.930617e+02 3.731656e+02
8.197694e+02 3.395773e+02
8.473765e+02 3.089567e+02
8.759133e+02 2.810449e+02
9.054112e+02 2.556057e+02
9.359024e+02 2.324229e+02
9.674205e+02 2.112993e+02
1.000000e+03 1.920548e+02
