Energy(MeV)   SpectralFluence(cm^-2 MeV^-1)
5.000000e-02 2.279565e+11
5.168383e-02 2.182470e+11
5.342437e-02 2.089502e+11
5.522353e-02 2.000488e+11
5.708327e-02 1.915259e+11
5.900565e-02 1.833654e+11
6.099276e-02 1.755519e+11
6.304680e-02 1.680707e+11
6.517000e-02 1.609077e+11
6.736471e-02 1.540492e+11
6.963333e-02 1.474825e+11
7.197835e-02 1.411950e+11
7.440234e-02 1.351749e+11
7.690796e-02 1.294108e+11
7.949797e-02 1.238920e+11
8.217519e-02 1.186078e+11
8.494258e-02 1.135484e+11
8.780317e-02 1.087042e+11
9.076008e-02 1.040661e+11
9.381658e-02 9.962528e+10
9.697601e-02 9.537337e+10
1.002418e-01 9.130234e+10
1.036177e-01 8.740450e+10
1.071072e-01 8.367249e+10
1.107142e-01 8.009927e+10
1.144426e-01 7.667808e+10
1.182967e-01 7.340246e+10
1.222805e-01 7.026622e+10
1.263985e-01 6.726344e+10
1.306552e-01 6.438844e+10
1.350553e-01 6.163580e+10
1.396035e-01 5.900031e+10
1.443048e-01 5.647698e+10
1.491646e-01 5.406106e+10
1.541879e-01 5.174798e+10
1.593805e-01 4.953336e+10
1.647479e-01 4.741301e+10
1.702960e-01 4.538294e+10
1.760310e-01 4.343930e+10
1.819592e-01 4.157842e+10
1.880869e-01 3.979678e+10
1.944211e-01 3.809100e+10
2.009685e-01 3.645788e+10
2.077365e-01 3.489430e+10
2.147324e-01 3.339733e+10
2.219638e-01 3.196413e+10
2.294388e-01 3.059197e+10
2.371656e-01 2.927828e+10
2.451525e-01 2.802057e+10
2.534084e-01 2.681644e+10
2.619424e-01 2.566363e+10
2.707637e-01 2.455996e+10
2.798822e-01 2.350333e+10
2.893077e-01 2.249174e+10
2.990506e-01 2.152328e+10
3.091216e-01 2.059611e+10
3.195318e-01 1.970848e+10
3.302926e-01 1.885870e+10
3.414157e-01 1.804518e+10
3.529135e-01 1.726635e+10
3.647984e-01 1.652076e+10
3.770836e-01 1.580698e+10
3.897825e-01 1.512366e+10
4.029091e-01 1.446951e+10
4.164778e-01 1.384328e+10
4.305033e-01 1.324380e+10
4.450013e-01 1.266991e+10
4.599874e-01 1.212053e+10
4.754783e-01 1.159463e+10
4.914908e-01 1.109119e+10
5.080426e-01 1.060927e+10
5.251518e-01 1.014795e+10
5.428371e-01 9.706348e+09
5.611181e-01 9.283633e+09
5.800147e-01 8.878998e+09
5.995476e-01 8.491673e+09
6.197384e-01 8.120923e+09
6.406091e-01 7.766042e+09
6.621827e-01 7.426355e+09
6.844828e-01 7.101215e+09
7.075339e-01 6.790003e+09
7.313613e-01 6.492127e+09
7.559911e-01 6.207019e+09
7.814504e-01 5.934135e+09
8.077670e-01 5.672955e+09
8.349699e-01 5.422981e+09
8.630889e-01 5.183735e+09
8.921549e-01 4.954763e+09
9.221997e-01 4.735625e+09
9.532563e-01 4.525903e+09
9.853588e-01 4.325196e+09
1.018542e+00 4.133121e+09
1.052844e+00 3.949310e+09
1.088300e+00 3.773411e+09
1.124950e+00 3.605087e+09
1.162835e+00 3.444016e+09
1.201995e+00 3.289889e+09
1.242474e+00 3.142409e+09
1.284317e+00 3.001294e+09
1.327568e+00 2.866273e+09
1.372276e+00 2.737087e+09
1.418490e+00 2.613485e+09
1.466260e+00 2.495232e+09
1.515639e+00 2.382098e+09
1.566680e+00 2.273867e+09
1.619441e+00 2.170328e+09
1.673978e+00 2.071282e+09
1.730352e+00 1.976537e+09
1.788625e+00 1.885911e+09
1.848860e+00 1.799227e+09
1.911123e+00 1.716318e+09
1.975484e+00 1.637023e+09
2.042011e+00 1.561187e+09
2.110780e+00 1.488664e+09
2.181864e+00 1.419312e+09
2.255341e+00 1.352995e+09
2.331294e+00 1.289585e+09
2.409804e+00 1.228958e+09
2.490958e+00 1.170994e+09
2.574845e+00 1.115581e+09
2.661558e+00 1.062609e+09
2.751190e+00 1.011974e+09
2.843841e+00 9.635772e+08
2.939612e+00 9.173224e+08
3.038609e+00 8.731183e+08
3.140939e+00 8.308775e+08
3.246715e+00 7.905163e+08
3.356054e+00 7.519543e+08
3.469074e+00 7.151148e+08
3.585901e+00 6.799243e+08
3.706663e+00 6.463124e+08
3.831491e+00 6.142116e+08
3.960522e+00 5.835575e+08
4.093900e+00 5.542881e+08
4.231769e+00 5.263445e+08
4.374280e+00 4.996698e+08
4.521592e+00 4.742099e+08
4.673864e+00 4.499129e+08
4.831264e+00 4.267289e+08
4.993965e+00 4.046105e+08
5.162145e+00 3.835119e+08
5.335989e+00 3.633896e+08
5.515687e+00 3.442017e+08
5.701437e+00 3.259082e+08
5.893443e+00 3.084707e+08
6.091914e+00 2.918525e+08
6.297070e+00 2.760185e+08
6.509134e+00 2.609349e+08
6.728340e+00 2.465696e+08
6.954928e+00 2.328915e+08
7.189147e+00 2.198712e+08
7.431253e+00 2.074802e+08
7.681513e+00 1.956914e+08
7.940201e+00 1.844788e+08
8.207601e+00 1.738174e+08
8.484005e+00 1.636834e+08
8.769719e+00 1.540538e+08
9.065053e+00 1.449068e+08
9.370334e+00 1.362213e+08
9.685896e+00 1.279771e+08
1.001208e+01 1.201549e+08
1.034926e+01 1.127362e+08
1.069779e+01 1.057033e+08
1.105805e+01 9.903910e+07
1.143045e+01 9.272727e+07
1.181539e+01 8.675216e+07
1.221329e+01 8.109873e+07
1.262460e+01 7.575257e+07
1.304975e+01 7.069984e+07
1.348922e+01 6.592726e+07
1.394350e+01 6.142209e+07
1.441307e+01 5.717209e+07
1.489845e+01 5.316550e+07
1.540018e+01 4.939105e+07
1.591881e+01 4.583790e+07
1.645490e+01 4.249565e+07
1.700905e+01 3.935428e+07
1.758185e+01 3.640420e+07
1.817395e+01 3.363616e+07
1.878599e+01 3.104130e+07
1.941864e+01 2.861108e+07
2.007260e+01 2.633731e+07
2.074857e+01 2.421212e+07
2.144732e+01 2.222791e+07
2.216959e+01 2.037741e+07
2.291619e+01 1.865363e+07
2.368793e+01 1.706291e+07
2.448566e+01 1.560777e+07
2.531026e+01 1.427664e+07
2.616262e+01 1.305897e+07
2.704369e+01 1.194508e+07
2.795443e+01 1.092614e+07
2.889585e+01 9.994058e+06
2.986896e+01 9.141431e+06
3.087485e+01 8.361490e+06
3.191461e+01 7.648041e+06
3.298939e+01 6.995418e+06
3.410036e+01 6.398439e+06
3.524875e+01 5.852361e+06
3.643581e+01 5.352847e+06
3.766285e+01 4.895929e+06
3.893121e+01 4.477976e+06
4.024228e+01 4.095668e+06
4.159751e+01 3.745967e+06
4.299837e+01 3.426092e+06
4.444641e+01 3.133503e+06
4.594322e+01 2.865873e+06
4.749044e+01 2.621075e+06
4.908976e+01 2.397162e+06
5.074294e+01 2.192354e+06
5.245179e+01 2.005021e+06
5.421819e+01 1.833675e+06
5.604408e+01 1.676952e+06
5.793146e+01 1.533605e+06
5.988240e+01 1.402494e+06
6.189904e+01 1.282575e+06
6.398359e+01 1.172893e+06
6.613834e+01 1.072576e+06
6.836566e+01 9.808249e+05
7.066799e+01 8.969089e+05
7.304785e+01 8.201598e+05
7.550786e+01 7.499661e+05
7.805072e+01 6.857686e+05
8.067920e+01 6.270558e+05
8.339621e+01 5.733595e+05
8.620472e+01 5.242518e+05
8.910781e+01 4.793410e+05
9.210866e+01 4.382690e+05
9.521057e+01 4.007082e+05
9.841695e+01 3.663587e+05
1.017313e+02 3.349465e+05
1.051573e+02 3.062209e+05
1.086986e+02 2.799523e+05
1.123592e+02 2.559310e+05
1.161431e+02 2.339651e+05
1.200544e+02 2.138790e+05
1.240975e+02 1.955122e+05
1.282767e+02 1.787178e+05
1.325966e+02 1.633613e+05
1.370620e+02 1.493201e+05
1.416778e+02 1.364816e+05
1.464490e+02 1.247431e+05
1.513809e+02 1.140106e+05
1.564789e+02 1.041979e+05
1.617486e+02 9.522659e+04
1.671958e+02 8.702458e+04
1.728264e+02 7.952611e+04
1.786466e+02 7.267098e+04
1.846628e+02 6.640416e+04
1.908817e+02 6.067531e+04
1.973099e+02 5.543837e+04
2.039547e+02 5.065125e+04
2.108232e+02 4.627543e+04
2.179230e+02 4.227568e+04
2.252619e+02 3.861980e+04
2.328480e+02 3.527832e+04
2.406895e+02 3.222431e+04
2.487952e+02 2.943313e+04
2.571738e+02 2.688224e+04
2.658345e+02 2.455105e+04
2.747869e+02 2.242071e+04
2.840408e+02 2.047399e+04
2.936064e+02 1.869513e+04
3.034941e+02 1.706972e+04
3.137148e+02 1.558459e+04
3.242796e+02 1.422770e+04
3.352003e+02 1.298802e+04
3.464887e+02 1.185548e+04
3.581573e+02 1.082088e+04
3.702189e+02 9.875789e+03
3.826866e+02 9.012509e+03
3.955742e+02 8.224001e+03
4.088958e+02 7.503829e+03
4.226661e+02 6.846107e+03
4.369001e+02 6.245456e+03
4.516134e+02 5.696958e+03
4.668222e+02 5.196116e+03
4.825433e+02 4.738820e+03
4.987937e+02 4.321311e+03
5.155914e+02 3.940155e+03
5.329548e+02 3.592212e+03
5.509030e+02 3.274612e+03
5.694556e+02 2.984732e+03
5.886329e+02 2.720172e+03
6.084561e+02 2.478743e+03
6.289469e+02 2.258440e+03
6.501277e+02 2.057432e+03
6.720219e+02 1.874048e+03
6.946533e+02 1.706757e+03
7.180470e+02 1.554163e+03
7.422284e+02 1.414989e+03
7.672242e+02 1.288068e+03
7.930617e+02 1.172334e+03
8.197694e+02 1.066814e+03
8.473765e+02 9.706161e+02
8.759133e+02 8.829287e+02
9.054112e+02 8.030089e+02
9.359024e+02 7.301780e+02
9.674205e+02 6.638164e+02
1.000000e+03 6.033579e+02
