# Energy(MeV) Fluence_Spherical_Median(cm^-2*MeV^-1)
5.000000e-02 5.813870e+11
5.083354e-02 5.688503e+11
5.168098e-02 5.567053e+11
5.254254e-02 5.448145e+11
5.341847e-02 5.331235e+11
5.430899e-02 5.217063e+11
5.521437e-02 5.104873e+11
5.613484e-02 4.995318e+11
5.707065e-02 4.888109e+11
5.802206e-02 4.784050e+11
5.898934e-02 4.681214e+11
5.997274e-02 4.581367e+11
6.097253e-02 4.482611e+11
6.198899e-02 4.389104e+11
6.302240e-02 4.295187e+11
6.407303e-02 4.204924e+11
6.514118e-02 4.114459e+11
6.622713e-02 4.026658e+11
6.733119e-02 3.940066e+11
6.845366e-02 3.855331e+11
6.959484e-02 3.772416e+11
7.075504e-02 3.692002e+11
7.193458e-02 3.612717e+11
7.313379e-02 3.535100e+11
7.435299e-02 3.459148e+11
7.559251e-02 3.384240e+11
7.685270e-02 3.312094e+11
7.813389e-02 3.240881e+11
7.943645e-02 3.170520e+11
8.076072e-02 3.102110e+11
8.210706e-02 3.036339e+11
8.347585e-02 2.971178e+11
8.486746e-02 2.907318e+11
8.628227e-02 2.844700e+11
8.772067e-02 2.784373e+11
8.918304e-02 2.725003e+11
9.066979e-02 2.666895e+11
9.218133e-02 2.609584e+11
9.371807e-02 2.553616e+11
9.528042e-02 2.498245e+11
9.686882e-02 2.444337e+11
9.848370e-02 2.393757e+11
1.001255e-01 2.342723e+11
1.017947e-01 2.291536e+11
1.034917e-01 2.241773e+11
1.052170e-01 2.194221e+11
1.069710e-01 2.147806e+11
1.087543e-01 2.101260e+11
1.105673e-01 2.055482e+11
1.124106e-01 2.011765e+11
1.142846e-01 1.968073e+11
1.161898e-01 1.925855e+11
1.181267e-01 1.884442e+11
1.200960e-01 1.843776e+11
1.220981e-01 1.804809e+11
1.241336e-01 1.766200e+11
1.262030e-01 1.728453e+11
1.283069e-01 1.691935e+11
1.304459e-01 1.655823e+11
1.326205e-01 1.620202e+11
1.348314e-01 1.584648e+11
1.370791e-01 1.550626e+11
1.393644e-01 1.517464e+11
1.416877e-01 1.485729e+11
1.440497e-01 1.453300e+11
1.464512e-01 1.421667e+11
1.488926e-01 1.390867e+11
1.513748e-01 1.360966e+11
1.538983e-01 1.332382e+11
1.564639e-01 1.303747e+11
1.590723e-01 1.275309e+11
1.617242e-01 1.247367e+11
1.644202e-01 1.220356e+11
1.671612e-01 1.193880e+11
1.699480e-01 1.168399e+11
1.727811e-01 1.143350e+11
1.756615e-01 1.119830e+11
1.785899e-01 1.096263e+11
1.815672e-01 1.072873e+11
1.845941e-01 1.049992e+11
1.876714e-01 1.027337e+11
1.908000e-01 1.004927e+11
1.939808e-01 9.840229e+10
1.972146e-01 9.635218e+10
2.005023e-01 9.425756e+10
2.038449e-01 9.221987e+10
2.072431e-01 9.025312e+10
2.106980e-01 8.828542e+10
2.142105e-01 8.641041e+10
2.177816e-01 8.452538e+10
2.214122e-01 8.267858e+10
2.251033e-01 8.090994e+10
2.288560e-01 7.919468e+10
2.326712e-01 7.749090e+10
2.365500e-01 7.587136e+10
2.404935e-01 7.426245e+10
2.445027e-01 7.265470e+10
2.485788e-01 7.110616e+10
2.527228e-01 6.956807e+10
2.569359e-01 6.806828e+10
2.612192e-01 6.658226e+10
2.655739e-01 6.511805e+10
2.700012e-01 6.372197e+10
2.745024e-01 6.234681e+10
2.790786e-01 6.101909e+10
2.837310e-01 5.971808e+10
2.884610e-01 5.844335e+10
2.932699e-01 5.716723e+10
2.981590e-01 5.593916e+10
3.031295e-01 5.473611e+10
3.081829e-01 5.351552e+10
3.133206e-01 5.235278e+10
3.185439e-01 5.120502e+10
3.238543e-01 5.009730e+10
3.292532e-01 4.899786e+10
3.347421e-01 4.793584e+10
3.403225e-01 4.691612e+10
3.459960e-01 4.590123e+10
3.517640e-01 4.488979e+10
3.576282e-01 4.392592e+10
3.635901e-01 4.296912e+10
3.696515e-01 4.201154e+10
3.758138e-01 4.111000e+10
3.820790e-01 4.021515e+10
3.884485e-01 3.934297e+10
3.949243e-01 3.849973e+10
4.015080e-01 3.767080e+10
4.082014e-01 3.684526e+10
4.150065e-01 3.602610e+10
4.219250e-01 3.523049e+10
4.289588e-01 3.445252e+10
4.361099e-01 3.371469e+10
4.433802e-01 3.297827e+10
4.507717e-01 3.227526e+10
4.582864e-01 3.157919e+10
4.659264e-01 3.090447e+10
4.736938e-01 3.023719e+10
4.815906e-01 2.957478e+10
4.896191e-01 2.893356e+10
4.977815e-01 2.830479e+10
5.060799e-01 2.769885e+10
5.145167e-01 2.710456e+10
5.230941e-01 2.650174e+10
5.318145e-01 2.592048e+10
5.406802e-01 2.534863e+10
5.496938e-01 2.480170e+10
5.588576e-01 2.425551e+10
5.681742e-01 2.371506e+10
5.776462e-01 2.319571e+10
5.872760e-01 2.268712e+10
5.970663e-01 2.219301e+10
6.070199e-01 2.170628e+10
6.171394e-01 2.124082e+10
6.274276e-01 2.078140e+10
6.378874e-01 2.033568e+10
6.485214e-01 1.988525e+10
6.593328e-01 1.945751e+10
6.703244e-01 1.903030e+10
6.814993e-01 1.861547e+10
6.928604e-01 1.820107e+10
7.044109e-01 1.779847e+10
7.161540e-01 1.740452e+10
7.280929e-01 1.702350e+10
7.402308e-01 1.664094e+10
7.525710e-01 1.627134e+10
7.651170e-01 1.591469e+10
7.778721e-01 1.556435e+10
7.908399e-01 1.521970e+10
8.040238e-01 1.488136e+10
8.174275e-01 1.455261e+10
8.310547e-01 1.423214e+10
8.449090e-01 1.391916e+10
8.589943e-01 1.361595e+10
8.733145e-01 1.331194e+10
8.878733e-01 1.302288e+10
9.026749e-01 1.274457e+10
9.177232e-01 1.245966e+10
9.330224e-01 1.217921e+10
9.485766e-01 1.190633e+10
9.643901e-01 1.163954e+10
9.804673e-01 1.138454e+10
9.968125e-01 1.113161e+10
1.013430e+00 1.088477e+10
1.030325e+00 1.063812e+10
1.047501e+00 1.039601e+10
1.064964e+00 1.016861e+10
1.082718e+00 9.940514e+09
1.100767e+00 9.718869e+09
1.119118e+00 9.505091e+09
1.137775e+00 9.292827e+09
1.156742e+00 9.080917e+09
1.176026e+00 8.876782e+09
1.195631e+00 8.684128e+09
1.215564e+00 8.490042e+09
1.235828e+00 8.295863e+09
1.256430e+00 8.111079e+09
1.277376e+00 7.931539e+09
1.298671e+00 7.753390e+09
1.320321e+00 7.578048e+09
1.342331e+00 7.407599e+09
1.364709e+00 7.239386e+09
1.387460e+00 7.077870e+09
1.410590e+00 6.920627e+09
1.434106e+00 6.767419e+09
1.458013e+00 6.616697e+09
1.482320e+00 6.467691e+09
1.507031e+00 6.322252e+09
1.532155e+00 6.180346e+09
1.557697e+00 6.043564e+09
1.583665e+00 5.910019e+09
1.610066e+00 5.774828e+09
1.636907e+00 5.643774e+09
1.664195e+00 5.515006e+09
1.691939e+00 5.389619e+09
1.720145e+00 5.268418e+09
1.748821e+00 5.148035e+09
1.777975e+00 5.028708e+09
1.807616e+00 4.912879e+09
1.837750e+00 4.800534e+09
1.868387e+00 4.689405e+09
1.899534e+00 4.582641e+09
1.931201e+00 4.478752e+09
1.963396e+00 4.376748e+09
1.996127e+00 4.275799e+09
2.029404e+00 4.177745e+09
2.063236e+00 4.083397e+09
2.097632e+00 3.990869e+09
2.132601e+00 3.899273e+09
2.168153e+00 3.809549e+09
2.204298e+00 3.719919e+09
2.241045e+00 3.632044e+09
2.278405e+00 3.547425e+09
2.316388e+00 3.466348e+09
2.355004e+00 3.386512e+09
2.394264e+00 3.308939e+09
2.434178e+00 3.232273e+09
2.474758e+00 3.156387e+09
2.516014e+00 3.083317e+09
2.557958e+00 3.011216e+09
2.600601e+00 2.939967e+09
2.643956e+00 2.870628e+09
2.688032e+00 2.802570e+09
2.732844e+00 2.735851e+09
2.778403e+00 2.671333e+09
2.824721e+00 2.608162e+09
2.871811e+00 2.546688e+09
2.919687e+00 2.486571e+09
2.968360e+00 2.427635e+09
3.017845e+00 2.369998e+09
3.068155e+00 2.313633e+09
3.119304e+00 2.258514e+09
3.171305e+00 2.204614e+09
3.224173e+00 2.152277e+09
3.277923e+00 2.100004e+09
3.332568e+00 2.049046e+09
3.388125e+00 1.999254e+09
3.444608e+00 1.951287e+09
3.502032e+00 1.904342e+09
3.560414e+00 1.858081e+09
3.619769e+00 1.812635e+09
3.680113e+00 1.767844e+09
3.741463e+00 1.724408e+09
3.803837e+00 1.682418e+09
3.867250e+00 1.641591e+09
3.931720e+00 1.601643e+09
3.997265e+00 1.562292e+09
4.063902e+00 1.523142e+09
4.131651e+00 1.485796e+09
4.200529e+00 1.448460e+09
4.270555e+00 1.412373e+09
4.341748e+00 1.377388e+09
4.414129e+00 1.342996e+09
4.487716e+00 1.309241e+09
4.562530e+00 1.276235e+09
4.638591e+00 1.243986e+09
4.715920e+00 1.212525e+09
4.794538e+00 1.181702e+09
4.874467e+00 1.151560e+09
4.955728e+00 1.122154e+09
5.038344e+00 1.093217e+09
5.122337e+00 1.065301e+09
5.207731e+00 1.037732e+09
5.294548e+00 1.010798e+09
5.382812e+00 9.846579e+08
5.472548e+00 9.590897e+08
5.563780e+00 9.342660e+08
5.656532e+00 9.097826e+08
5.750831e+00 8.859984e+08
5.846702e+00 8.626865e+08
5.944171e+00 8.398439e+08
6.043265e+00 8.175389e+08
6.144012e+00 7.958130e+08
6.246437e+00 7.744767e+08
6.350570e+00 7.536644e+08
6.456439e+00 7.336849e+08
6.564073e+00 7.141096e+08
6.673502e+00 6.948941e+08
6.784754e+00 6.761773e+08
6.897862e+00 6.577800e+08
7.012854e+00 6.399523e+08
7.129764e+00 6.225220e+08
7.248623e+00 6.052474e+08
7.369464e+00 5.885147e+08
7.492318e+00 5.723324e+08
7.617221e+00 5.565360e+08
7.744207e+00 5.410031e+08
7.873309e+00 5.257283e+08
8.004563e+00 5.109057e+08
8.138006e+00 4.966888e+08
8.273673e+00 4.826348e+08
8.411601e+00 4.690005e+08
8.551830e+00 4.558939e+08
8.694395e+00 4.428705e+08
8.839338e+00 4.300215e+08
8.986697e+00 4.177775e+08
9.136512e+00 4.058002e+08
9.288825e+00 3.940336e+08
9.443677e+00 3.826524e+08
9.601111e+00 3.714717e+08
9.761169e+00 3.604868e+08
9.923896e+00 3.496692e+08
1.008933e+01 3.393695e+08
1.025753e+01 3.291900e+08
1.042853e+01 3.192991e+08
1.060239e+01 3.096238e+08
1.077914e+01 3.000833e+08
1.095883e+01 2.908737e+08
1.114153e+01 2.819922e+08
1.132726e+01 2.732867e+08
1.151610e+01 2.647142e+08
1.170808e+01 2.565029e+08
1.190326e+01 2.485090e+08
1.210170e+01 2.407246e+08
1.230345e+01 2.327856e+08
1.250855e+01 2.251148e+08
1.271708e+01 2.178670e+08
1.292909e+01 2.107082e+08
1.314462e+01 2.038089e+08
1.336375e+01 1.971686e+08
1.358654e+01 1.906046e+08
1.381304e+01 1.842556e+08
1.404331e+01 1.782432e+08
1.427743e+01 1.722893e+08
1.451544e+01 1.664715e+08
1.475743e+01 1.608274e+08
1.500344e+01 1.552623e+08
1.525356e+01 1.499853e+08
1.550785e+01 1.447580e+08
1.576638e+01 1.398102e+08
1.602922e+01 1.349517e+08
1.629644e+01 1.301504e+08
1.656811e+01 1.256283e+08
1.684432e+01 1.211139e+08
1.712513e+01 1.167896e+08
1.741061e+01 1.124857e+08
1.770086e+01 1.083946e+08
1.799595e+01 1.044717e+08
1.829596e+01 1.006293e+08
1.860097e+01 9.690539e+07
1.891106e+01 9.323400e+07
1.922632e+01 8.971784e+07
1.954684e+01 8.636158e+07
1.987270e+01 8.305835e+07
2.020400e+01 7.987295e+07
2.054081e+01 7.683100e+07
2.088324e+01 7.386936e+07
2.123138e+01 7.101007e+07
2.158533e+01 6.825407e+07
2.194517e+01 6.561634e+07
2.231102e+01 6.304907e+07
2.268296e+01 6.059261e+07
2.306110e+01 5.813746e+07
2.344555e+01 5.569779e+07
2.383641e+01 5.343515e+07
2.423378e+01 5.125312e+07
2.463777e+01 4.919006e+07
2.504851e+01 4.714307e+07
2.546608e+01 4.514413e+07
2.589062e+01 4.320872e+07
2.632224e+01 4.133905e+07
2.676105e+01 3.954589e+07
2.720718e+01 3.779499e+07
2.766075e+01 3.618367e+07
2.812188e+01 3.458831e+07
2.859069e+01 3.308831e+07
2.906732e+01 3.159553e+07
2.955189e+01 3.014036e+07
3.004455e+01 2.876262e+07
3.054541e+01 2.741248e+07
3.105463e+01 2.612993e+07
3.157234e+01 2.486683e+07
3.209867e+01 2.369867e+07
3.263378e+01 2.256424e+07
3.317781e+01 2.150834e+07
3.373092e+01 2.048832e+07
3.429324e+01 1.949163e+07
3.486493e+01 1.851865e+07
3.544616e+01 1.760718e+07
3.603708e+01 1.673476e+07
3.663784e+01 1.588379e+07
3.724862e+01 1.509919e+07
3.786959e+01 1.434053e+07
3.850090e+01 1.360711e+07
3.914275e+01 1.289563e+07
3.979529e+01 1.220352e+07
4.045871e+01 1.155931e+07
4.113318e+01 1.095208e+07
4.181891e+01 1.037007e+07
4.251606e+01 9.823350e+06
4.322484e+01 9.299732e+06
4.394543e+01 8.806737e+06
4.467804e+01 8.338921e+06
4.542286e+01 7.891932e+06
4.618009e+01 7.471976e+06
4.694995e+01 7.075631e+06
4.773264e+01 6.699796e+06
4.852839e+01 6.338465e+06
4.933739e+01 6.002614e+06
5.015989e+01 5.680008e+06
5.099609e+01 5.375563e+06
5.184624e+01 5.090942e+06
5.271056e+01 4.821456e+06
5.358928e+01 4.562114e+06
5.448266e+01 4.317216e+06
5.539093e+01 4.085304e+06
5.631434e+01 3.865659e+06
5.725315e+01 3.656466e+06
5.820760e+01 3.461238e+06
5.917797e+01 3.275541e+06
6.016451e+01 3.100279e+06
6.116750e+01 2.932891e+06
6.218721e+01 2.774719e+06
6.322392e+01 2.625739e+06
6.427792e+01 2.485048e+06
6.534948e+01 2.350025e+06
6.643891e+01 2.223759e+06
6.754650e+01 2.104192e+06
6.867256e+01 1.991424e+06
6.981738e+01 1.886068e+06
7.098129e+01 1.784491e+06
7.216461e+01 1.689208e+06
7.336765e+01 1.598313e+06
7.459075e+01 1.511823e+06
7.583423e+01 1.429984e+06
7.709845e+01 1.352511e+06
7.838375e+01 1.278855e+06
7.969047e+01 1.210302e+06
8.101897e+01 1.145359e+06
8.236962e+01 1.082624e+06
8.374279e+01 1.024110e+06
8.513885e+01 9.690935e+05
8.655818e+01 9.172946e+05
8.800117e+01 8.681404e+05
8.946822e+01 8.220744e+05
9.095973e+01 7.786308e+05
9.247610e+01 7.368198e+05
9.401775e+01 6.971802e+05
9.558510e+01 6.593122e+05
9.717858e+01 6.233318e+05
9.879863e+01 5.896518e+05
1.004457e+02 5.581642e+05
1.021202e+02 5.282131e+05
1.038226e+02 4.999358e+05
1.055534e+02 4.732507e+05
1.073131e+02 4.478640e+05
1.091021e+02 4.239531e+05
1.109209e+02 4.011639e+05
1.127700e+02 3.797061e+05
1.146500e+02 3.591269e+05
1.165613e+02 3.399251e+05
1.185045e+02 3.216243e+05
1.204800e+02 3.042932e+05
1.224885e+02 2.882146e+05
1.245305e+02 2.723124e+05
1.266066e+02 2.577352e+05
1.287172e+02 2.439180e+05
1.308630e+02 2.308461e+05
1.330446e+02 2.184454e+05
1.352626e+02 2.066791e+05
1.375175e+02 1.955019e+05
1.398100e+02 1.849962e+05
1.421408e+02 1.750602e+05
1.445104e+02 1.655956e+05
1.469195e+02 1.566900e+05
1.493687e+02 1.482360e+05
1.518588e+02 1.403096e+05
1.543904e+02 1.328036e+05
1.569642e+02 1.256217e+05
1.595810e+02 1.188119e+05
1.622413e+02 1.124189e+05
1.649460e+02 1.062726e+05
1.676958e+02 1.005773e+05
1.704914e+02 9.523949e+04
1.733336e+02 9.012819e+04
1.762232e+02 8.529235e+04
1.791610e+02 8.075804e+04
1.821478e+02 7.636288e+04
1.851843e+02 7.232751e+04
1.882715e+02 6.841648e+04
1.914101e+02 6.470729e+04
1.946011e+02 6.123325e+04
1.978453e+02 5.790296e+04
2.011435e+02 5.476725e+04
2.044967e+02 5.182306e+04
2.079058e+02 4.905019e+04
2.113718e+02 4.638454e+04
2.148955e+02 4.387797e+04
2.184780e+02 4.152718e+04
2.221202e+02 3.927585e+04
2.258231e+02 3.712916e+04
2.295878e+02 3.515726e+04
2.334152e+02 3.325878e+04
2.373064e+02 3.149206e+04
2.412625e+02 2.979046e+04
2.452846e+02 2.819398e+04
2.493736e+02 2.666069e+04
2.535309e+02 2.521133e+04
2.577575e+02 2.386889e+04
2.620545e+02 2.260319e+04
2.664231e+02 2.138825e+04
2.708646e+02 2.024316e+04
2.753802e+02 1.915418e+04
2.799710e+02 1.812604e+04
2.846383e+02 1.716547e+04
2.893835e+02 1.624155e+04
2.942077e+02 1.536198e+04
2.991124e+02 1.452230e+04
3.040988e+02 1.374200e+04
3.091684e+02 1.299704e+04
3.143225e+02 1.229643e+04
3.195625e+02 1.163752e+04
3.248899e+02 1.101014e+04
3.303060e+02 1.041260e+04
3.358125e+02 9.850089e+03
3.414108e+02 9.321857e+03
3.471024e+02 8.814001e+03
3.528888e+02 8.338702e+03
3.587718e+02 7.889658e+03
3.647528e+02 7.465559e+03
3.708335e+02 7.064469e+03
3.770156e+02 6.683721e+03
3.833007e+02 6.323877e+03
3.896907e+02 5.974406e+03
3.961871e+02 5.652645e+03
4.027919e+02 5.348317e+03
4.095068e+02 5.062286e+03
4.163336e+02 4.787648e+03
4.232742e+02 4.532763e+03
4.303305e+02 4.292545e+03
4.375044e+02 4.061844e+03
4.447980e+02 3.838491e+03
4.522131e+02 3.631773e+03
4.597519e+02 3.434120e+03
4.674163e+02 3.252182e+03
4.752085e+02 3.077469e+03
4.831306e+02 2.910089e+03
4.911848e+02 2.756543e+03
4.993733e+02 2.609764e+03
5.076982e+02 2.469208e+03
5.161619e+02 2.334122e+03
5.247668e+02 2.208447e+03
5.335151e+02 2.088912e+03
5.424092e+02 1.976978e+03
5.514516e+02 1.870787e+03
5.606447e+02 1.770931e+03
5.699911e+02 1.676002e+03
5.794933e+02 1.586008e+03
5.891539e+02 1.501088e+03
5.989756e+02 1.420494e+03
6.089610e+02 1.344311e+03
6.191129e+02 1.271947e+03
6.294340e+02 1.202593e+03
6.399271e+02 1.136553e+03
6.505952e+02 1.075530e+03
6.614412e+02 1.017745e+03
6.724679e+02 9.641606e+02
6.836785e+02 9.125986e+02
6.950760e+02 8.639031e+02
7.066635e+02 8.178304e+02
7.184441e+02 7.739118e+02
7.304211e+02 7.315867e+02
7.425979e+02 6.924616e+02
7.549776e+02 6.551600e+02
7.675636e+02 6.196086e+02
7.803595e+02 5.862564e+02
7.933688e+02 5.548343e+02
8.065948e+02 5.245662e+02
8.200414e+02 4.965675e+02
8.337122e+02 4.696725e+02
8.476108e+02 4.442332e+02
8.617412e+02 4.204023e+02
8.761071e+02 3.976749e+02
8.907125e+02 3.763807e+02
9.055614e+02 3.566084e+02
9.206578e+02 3.378856e+02
9.360059e+02 3.198576e+02
9.516099e+02 3.025753e+02
9.674740e+02 2.862602e+02
9.836026e+02 2.711129e+02
1.000000e+03 2.564974e+02
