# Energy(MeV) Phi16 Phi84
1.800000e+00 1.719603e+09 2.007012e+09
1.822942e+00 1.694019e+09 1.974335e+09
1.846177e+00 1.669083e+09 1.942433e+09
1.869708e+00 1.644923e+09 1.911913e+09
1.893539e+00 1.621235e+09 1.881784e+09
1.917674e+00 1.597997e+09 1.851778e+09
1.942116e+00 1.575278e+09 1.822232e+09
1.966870e+00 1.551969e+09 1.793019e+09
1.991940e+00 1.529093e+09 1.764168e+09
2.017328e+00 1.505702e+09 1.735608e+09
2.043041e+00 1.483318e+09 1.708055e+09
2.069081e+00 1.461678e+09 1.680733e+09
2.095453e+00 1.440012e+09 1.654293e+09
2.122162e+00 1.418526e+09 1.628595e+09
2.149210e+00 1.397279e+09 1.602457e+09
2.176604e+00 1.376421e+09 1.576234e+09
2.204346e+00 1.356253e+09 1.551142e+09
2.232442e+00 1.336562e+09 1.526107e+09
2.260897e+00 1.317177e+09 1.501788e+09
2.289714e+00 1.298134e+09 1.477784e+09
2.318898e+00 1.279335e+09 1.453896e+09
2.348454e+00 1.260712e+09 1.430163e+09
2.378387e+00 1.242112e+09 1.407096e+09
2.408702e+00 1.223925e+09 1.384501e+09
2.439402e+00 1.205729e+09 1.362085e+09
2.470495e+00 1.187677e+09 1.340218e+09
2.501983e+00 1.170324e+09 1.318840e+09
2.533873e+00 1.153284e+09 1.297513e+09
2.566169e+00 1.136177e+09 1.276592e+09
2.598877e+00 1.118884e+09 1.256135e+09
2.632002e+00 1.102091e+09 1.236108e+09
2.665549e+00 1.085607e+09 1.216167e+09
2.699523e+00 1.069352e+09 1.196804e+09
2.733931e+00 1.053425e+09 1.177790e+09
2.768777e+00 1.037753e+09 1.159060e+09
2.804067e+00 1.022295e+09 1.140549e+09
2.839808e+00 1.007017e+09 1.122114e+09
2.876003e+00 9.915770e+08 1.103846e+09
2.912660e+00 9.763722e+08 1.086238e+09
2.949784e+00 9.614726e+08 1.068658e+09
2.987382e+00 9.468452e+08 1.051502e+09
3.025458e+00 9.323753e+08 1.034333e+09
3.064020e+00 9.183387e+08 1.017406e+09
3.103074e+00 9.046365e+08 1.000820e+09
3.142625e+00 8.911334e+08 9.847217e+08
3.182680e+00 8.775260e+08 9.685222e+08
3.223246e+00 8.641106e+08 9.525510e+08
3.264329e+00 8.510424e+08 9.367424e+08
3.305936e+00 8.383647e+08 9.215001e+08
3.348072e+00 8.255131e+08 9.064237e+08
3.390746e+00 8.129783e+08 8.916402e+08
3.433964e+00 8.004483e+08 8.768410e+08
3.477733e+00 7.879143e+08 8.625018e+08
3.522059e+00 7.757711e+08 8.484875e+08
3.566951e+00 7.639934e+08 8.346008e+08
3.612415e+00 7.524303e+08 8.207381e+08
3.658458e+00 7.409202e+08 8.070622e+08
3.705088e+00 7.295905e+08 7.936824e+08
3.752312e+00 7.184000e+08 7.805115e+08
3.800138e+00 7.073848e+08 7.677026e+08
3.848574e+00 6.966037e+08 7.550203e+08
3.897627e+00 6.857434e+08 7.424712e+08
3.947306e+00 6.749789e+08 7.299787e+08
3.997617e+00 6.644750e+08 7.177232e+08
4.048570e+00 6.541414e+08 7.057451e+08
4.100173e+00 6.438380e+08 6.940748e+08
4.152433e+00 6.336443e+08 6.827011e+08
4.205359e+00 6.235343e+08 6.715377e+08
4.258959e+00 6.134480e+08 6.602771e+08
4.313243e+00 6.037166e+08 6.490297e+08
4.368219e+00 5.941994e+08 6.382057e+08
4.423896e+00 5.846370e+08 6.277141e+08
4.480282e+00 5.754405e+08 6.170266e+08
4.537387e+00 5.663963e+08 6.067439e+08
4.595219e+00 5.573832e+08 5.966741e+08
4.653789e+00 5.485164e+08 5.867148e+08
4.713105e+00 5.396190e+08 5.766409e+08
4.773178e+00 5.307462e+08 5.669913e+08
4.834016e+00 5.220981e+08 5.574697e+08
4.895629e+00 5.136452e+08 5.478913e+08
4.958028e+00 5.053133e+08 5.386189e+08
5.021222e+00 4.971199e+08 5.294745e+08
5.085222e+00 4.890324e+08 5.204741e+08
5.150037e+00 4.810897e+08 5.117486e+08
5.215678e+00 4.731689e+08 5.030835e+08
5.282156e+00 4.652998e+08 4.945808e+08
5.349482e+00 4.576875e+08 4.861889e+08
5.417665e+00 4.501155e+08 4.780288e+08
5.486718e+00 4.426125e+08 4.698730e+08
5.556650e+00 4.352208e+08 4.617941e+08
5.627475e+00 4.278648e+08 4.539320e+08
5.699201e+00 4.207360e+08 4.461339e+08
5.771842e+00 4.137309e+08 4.385685e+08
5.845409e+00 4.069601e+08 4.311289e+08
5.919913e+00 4.000716e+08 4.236794e+08
5.995368e+00 3.934720e+08 4.162567e+08
6.071783e+00 3.868392e+08 4.090516e+08
6.149173e+00 3.804275e+08 4.020598e+08
6.227549e+00 3.741223e+08 3.950807e+08
6.306925e+00 3.678455e+08 3.881726e+08
6.387311e+00 3.615086e+08 3.813951e+08
6.468723e+00 3.553356e+08 3.746811e+08
6.551172e+00 3.493480e+08 3.680832e+08
6.634672e+00 3.433624e+08 3.616962e+08
6.719236e+00 3.373931e+08 3.553925e+08
6.804878e+00 3.316438e+08 3.491369e+08
6.891612e+00 3.258997e+08 3.429912e+08
6.979451e+00 3.202920e+08 3.369845e+08
7.068410e+00 3.148384e+08 3.310123e+08
7.158503e+00 3.093054e+08 3.251514e+08
7.249744e+00 3.038398e+08 3.193904e+08
7.342148e+00 2.984567e+08 3.137725e+08
7.435729e+00 2.932582e+08 3.081875e+08
7.530504e+00 2.880397e+08 3.026527e+08
7.626486e+00 2.829348e+08 2.972691e+08
7.723692e+00 2.779701e+08 2.919948e+08
7.822136e+00 2.730207e+08 2.867491e+08
7.921836e+00 2.681622e+08 2.816006e+08
8.022806e+00 2.633606e+08 2.765530e+08
8.125063e+00 2.587120e+08 2.716020e+08
8.228624e+00 2.539780e+08 2.667379e+08
8.333504e+00 2.493626e+08 2.619129e+08
8.439722e+00 2.448763e+08 2.571581e+08
8.547293e+00 2.404892e+08 2.524228e+08
8.656235e+00 2.361199e+08 2.478248e+08
8.766566e+00 2.318115e+08 2.433122e+08
8.878303e+00 2.275231e+08 2.388850e+08
8.991464e+00 2.233557e+08 2.345590e+08
9.106067e+00 2.191931e+08 2.302356e+08
9.222132e+00 2.151914e+08 2.259817e+08
9.339675e+00 2.111884e+08 2.217833e+08
9.458717e+00 2.073246e+08 2.176364e+08
9.579276e+00 2.034658e+08 2.135533e+08
9.701372e+00 1.996536e+08 2.095973e+08
9.825023e+00 1.959487e+08 2.056380e+08
9.950251e+00 1.923062e+08 2.018266e+08
1.007708e+01 1.886960e+08 1.980030e+08
1.020552e+01 1.851159e+08 1.942500e+08
1.033559e+01 1.816345e+08 1.905886e+08
1.046733e+01 1.782258e+08 1.869997e+08
1.060074e+01 1.748610e+08 1.834448e+08
1.073586e+01 1.715376e+08 1.799722e+08
1.087270e+01 1.682168e+08 1.764902e+08
1.101128e+01 1.650217e+08 1.730973e+08
1.115162e+01 1.618651e+08 1.697689e+08
1.129376e+01 1.587552e+08 1.664861e+08
1.143771e+01 1.557386e+08 1.632595e+08
1.158349e+01 1.526578e+08 1.601026e+08
1.173113e+01 1.496349e+08 1.569782e+08
1.188066e+01 1.467234e+08 1.539534e+08
1.203208e+01 1.438324e+08 1.509568e+08
1.218544e+01 1.410279e+08 1.480015e+08
1.234076e+01 1.382771e+08 1.450613e+08
1.249805e+01 1.355348e+08 1.422252e+08
1.265735e+01 1.328135e+08 1.393563e+08
1.281868e+01 1.301515e+08 1.366079e+08
1.298206e+01 1.275203e+08 1.338507e+08
1.314753e+01 1.249434e+08 1.311642e+08
1.331510e+01 1.224055e+08 1.285314e+08
1.348482e+01 1.199435e+08 1.259339e+08
1.365669e+01 1.174895e+08 1.233859e+08
1.383076e+01 1.150956e+08 1.208760e+08
1.400704e+01 1.127473e+08 1.184096e+08
1.418557e+01 1.104215e+08 1.159892e+08
1.436638e+01 1.081328e+08 1.136023e+08
1.454949e+01 1.058780e+08 1.112690e+08
1.473493e+01 1.036768e+08 1.089742e+08
1.492274e+01 1.014910e+08 1.067091e+08
1.511294e+01 9.939942e+07 1.044922e+08
1.530557e+01 9.731122e+07 1.022834e+08
1.550065e+01 9.525691e+07 1.001310e+08
1.569822e+01 9.324156e+07 9.801838e+07
1.589831e+01 9.127999e+07 9.594956e+07
1.610095e+01 8.932706e+07 9.391754e+07
1.630616e+01 8.740936e+07 9.190922e+07
1.651400e+01 8.553134e+07 8.993695e+07
1.672448e+01 8.368775e+07 8.798939e+07
1.693765e+01 8.188728e+07 8.608107e+07
1.715354e+01 8.010480e+07 8.419991e+07
1.737217e+01 7.834697e+07 8.238122e+07
1.759359e+01 7.662864e+07 8.057673e+07
1.781784e+01 7.492383e+07 7.879751e+07
1.804494e+01 7.328185e+07 7.704807e+07
1.827494e+01 7.164306e+07 7.534010e+07
1.850787e+01 7.005396e+07 7.364831e+07
1.874377e+01 6.848627e+07 7.199185e+07
1.898267e+01 6.694248e+07 7.034578e+07
1.922462e+01 6.541913e+07 6.874566e+07
1.946965e+01 6.391651e+07 6.719457e+07
1.971781e+01 6.244322e+07 6.566470e+07
1.996913e+01 6.099853e+07 6.416293e+07
2.022365e+01 5.957784e+07 6.268708e+07
2.048142e+01 5.818949e+07 6.124449e+07
2.074247e+01 5.683553e+07 5.981632e+07
2.100685e+01 5.550355e+07 5.841561e+07
2.127460e+01 5.419445e+07 5.704141e+07
2.154576e+01 5.291742e+07 5.569087e+07
2.182038e+01 5.165366e+07 5.436289e+07
2.209850e+01 5.042238e+07 5.305993e+07
2.238016e+01 4.920180e+07 5.177788e+07
2.266542e+01 4.801254e+07 5.053705e+07
2.295430e+01 4.683474e+07 4.931104e+07
2.324688e+01 4.567940e+07 4.810497e+07
2.354318e+01 4.455479e+07 4.692235e+07
2.384325e+01 4.344318e+07 4.576718e+07
2.414715e+01 4.236685e+07 4.462370e+07
2.445493e+01 4.131295e+07 4.350708e+07
2.476663e+01 4.029021e+07 4.241350e+07
2.508230e+01 3.927449e+07 4.135508e+07
2.540199e+01 3.827729e+07 4.031717e+07
2.572576e+01 3.730652e+07 3.928400e+07
2.605366e+01 3.635711e+07 3.827921e+07
2.638573e+01 3.541875e+07 3.728734e+07
2.672204e+01 3.449006e+07 3.632237e+07
2.706263e+01 3.358027e+07 3.538873e+07
2.740757e+01 3.270829e+07 3.447328e+07
2.775690e+01 3.183392e+07 3.357453e+07
2.811069e+01 3.098144e+07 3.268882e+07
2.846898e+01 3.016609e+07 3.182180e+07
2.883184e+01 2.934547e+07 3.096939e+07
2.919932e+01 2.856579e+07 3.012868e+07
2.957149e+01 2.778828e+07 2.931160e+07
2.994841e+01 2.702684e+07 2.851516e+07
3.033012e+01 2.627500e+07 2.773466e+07
3.071671e+01 2.553793e+07 2.697201e+07
3.110821e+01 2.482154e+07 2.622699e+07
3.150471e+01 2.411646e+07 2.550210e+07
3.190627e+01 2.343145e+07 2.479449e+07
3.231294e+01 2.276089e+07 2.409768e+07
3.272479e+01 2.210602e+07 2.341631e+07
3.314190e+01 2.146761e+07 2.274755e+07
3.356432e+01 2.083637e+07 2.209659e+07
3.399212e+01 2.022629e+07 2.146039e+07
3.442538e+01 1.963391e+07 2.083717e+07
3.486416e+01 1.905748e+07 2.023053e+07
3.530853e+01 1.849737e+07 1.963467e+07
3.575857e+01 1.793828e+07 1.905454e+07
3.621434e+01 1.739752e+07 1.848411e+07
3.667592e+01 1.685894e+07 1.793135e+07
3.714338e+01 1.635776e+07 1.739433e+07
3.761681e+01 1.585348e+07 1.686582e+07
3.809626e+01 1.536009e+07 1.635496e+07
3.858183e+01 1.487879e+07 1.585522e+07
3.907359e+01 1.440672e+07 1.536394e+07
3.957161e+01 1.395676e+07 1.488897e+07
4.007598e+01 1.351131e+07 1.442598e+07
4.058679e+01 1.307102e+07 1.397293e+07
4.110410e+01 1.265131e+07 1.353105e+07
4.162800e+01 1.222995e+07 1.310084e+07
4.215858e+01 1.182291e+07 1.268587e+07
4.269593e+01 1.143684e+07 1.227460e+07
4.324012e+01 1.105626e+07 1.187740e+07
4.379126e+01 1.069239e+07 1.148733e+07
4.434941e+01 1.033423e+07 1.110880e+07
4.491468e+01 9.985544e+06 1.074206e+07
4.548715e+01 9.643293e+06 1.038428e+07
4.606692e+01 9.308190e+06 1.003654e+07
4.665408e+01 8.975382e+06 9.700190e+06
4.724873e+01 8.664695e+06 9.371662e+06
4.785095e+01 8.357170e+06 9.050311e+06
4.846085e+01 8.059239e+06 8.740464e+06
4.907852e+01 7.769333e+06 8.436946e+06
4.970407e+01 7.489430e+06 8.143487e+06
5.033759e+01 7.211747e+06 7.860123e+06
5.097918e+01 6.943910e+06 7.582351e+06
5.162895e+01 6.685520e+06 7.310372e+06
5.228701e+01 6.438037e+06 7.047062e+06
5.295345e+01 6.195874e+06 6.792217e+06
5.362838e+01 5.958447e+06 6.546528e+06
5.431192e+01 5.725434e+06 6.309398e+06
5.500417e+01 5.502516e+06 6.078548e+06
5.570524e+01 5.285670e+06 5.855053e+06
5.641525e+01 5.073212e+06 5.633109e+06
5.713431e+01 4.870796e+06 5.423044e+06
5.786253e+01 4.676466e+06 5.219237e+06
5.860004e+01 4.487416e+06 5.021387e+06
5.934694e+01 4.307702e+06 4.829709e+06
6.010337e+01 4.132894e+06 4.644116e+06
6.086943e+01 3.964901e+06 4.466226e+06
6.164526e+01 3.805659e+06 4.290227e+06
6.243098e+01 3.652880e+06 4.119453e+06
6.322671e+01 3.505786e+06 3.955731e+06
6.403259e+01 3.366006e+06 3.797217e+06
6.484874e+01 3.232217e+06 3.645357e+06
6.567529e+01 3.101603e+06 3.498687e+06
6.651237e+01 2.975800e+06 3.357935e+06
6.736013e+01 2.854652e+06 3.220907e+06
6.821869e+01 2.737781e+06 3.089328e+06
6.908819e+01 2.628108e+06 2.961872e+06
6.996877e+01 2.522801e+06 2.840829e+06
7.086058e+01 2.421362e+06 2.725697e+06
7.176376e+01 2.324022e+06 2.614848e+06
7.267845e+01 2.231083e+06 2.507752e+06
7.360479e+01 2.140520e+06 2.404885e+06
7.454294e+01 2.054237e+06 2.306409e+06
7.549305e+01 1.971038e+06 2.212639e+06
7.645527e+01 1.891930e+06 2.122603e+06
7.742976e+01 1.815812e+06 2.036173e+06
7.841666e+01 1.742281e+06 1.953411e+06
7.941615e+01 1.672198e+06 1.874647e+06
8.042837e+01 1.603990e+06 1.798126e+06
8.145350e+01 1.539499e+06 1.724421e+06
8.249169e+01 1.477622e+06 1.654642e+06
8.354311e+01 1.417620e+06 1.586788e+06
8.460794e+01 1.360463e+06 1.522676e+06
8.568633e+01 1.305821e+06 1.460785e+06
8.677847e+01 1.253120e+06 1.401329e+06
8.788454e+01 1.202578e+06 1.344169e+06
8.900470e+01 1.153819e+06 1.289115e+06
9.013913e+01 1.107234e+06 1.236975e+06
9.128803e+01 1.062513e+06 1.187144e+06
9.245157e+01 1.019683e+06 1.138874e+06
9.362994e+01 9.783562e+05 1.092559e+06
9.482333e+01 9.384576e+05 1.047886e+06
9.603193e+01 9.007605e+05 1.005179e+06
9.725594e+01 8.644955e+05 9.639856e+05
9.849554e+01 8.297769e+05 9.249832e+05
9.975095e+01 7.965263e+05 8.872003e+05
1.010224e+02 7.643866e+05 8.513058e+05
1.023100e+02 7.337805e+05 8.164728e+05
1.036140e+02 7.042812e+05 7.837616e+05
1.049346e+02 6.758625e+05 7.523500e+05
1.062721e+02 6.486868e+05 7.217031e+05
1.076266e+02 6.225611e+05 6.926530e+05
1.089984e+02 5.973210e+05 6.647838e+05
1.103877e+02 5.727964e+05 6.379726e+05
1.117947e+02 5.499759e+05 6.122434e+05
1.132196e+02 5.275990e+05 5.873475e+05
1.146627e+02 5.060945e+05 5.634599e+05
1.161241e+02 4.854959e+05 5.404796e+05
1.176042e+02 4.659283e+05 5.184950e+05
1.191032e+02 4.467737e+05 4.976255e+05
1.206213e+02 4.285266e+05 4.773141e+05
1.221587e+02 4.109611e+05 4.578470e+05
1.237157e+02 3.941366e+05 4.393051e+05
1.252925e+02 3.778640e+05 4.214624e+05
1.268895e+02 3.627289e+05 4.046379e+05
1.285068e+02 3.480496e+05 3.883347e+05
1.301447e+02 3.338294e+05 3.726562e+05
1.318035e+02 3.202042e+05 3.576252e+05
1.334835e+02 3.071424e+05 3.433001e+05
1.351848e+02 2.947350e+05 3.294407e+05
1.369079e+02 2.827387e+05 3.161752e+05
1.386529e+02 2.713941e+05 3.033259e+05
1.404201e+02 2.602596e+05 2.910171e+05
1.422099e+02 2.496586e+05 2.791552e+05
1.440225e+02 2.395589e+05 2.677636e+05
1.458582e+02 2.298385e+05 2.568692e+05
1.477172e+02 2.205361e+05 2.465993e+05
1.496000e+02 2.115643e+05 2.366815e+05
1.515068e+02 2.029439e+05 2.272197e+05
1.534379e+02 1.946748e+05 2.181478e+05
1.553935e+02 1.867607e+05 2.093623e+05
1.573742e+02 1.791464e+05 2.008507e+05
1.593800e+02 1.718190e+05 1.926872e+05
1.614115e+02 1.648493e+05 1.848321e+05
1.634688e+02 1.581327e+05 1.773613e+05
1.655523e+02 1.516567e+05 1.702385e+05
1.676624e+02 1.454565e+05 1.634284e+05
1.697994e+02 1.394546e+05 1.568722e+05
1.719636e+02 1.337419e+05 1.504988e+05
1.741555e+02 1.283152e+05 1.443732e+05
1.763752e+02 1.230649e+05 1.385060e+05
1.786233e+02 1.180523e+05 1.328731e+05
1.809000e+02 1.132224e+05 1.275112e+05
1.832057e+02 1.086027e+05 1.223269e+05
1.855408e+02 1.041907e+05 1.174165e+05
1.879056e+02 9.991378e+04 1.126355e+05
1.903007e+02 9.587724e+04 1.081393e+05
1.927262e+02 9.192611e+04 1.037495e+05
1.951826e+02 8.817152e+04 9.956005e+04
1.976704e+02 8.457702e+04 9.555491e+04
2.001899e+02 8.112663e+04 9.171104e+04
2.027415e+02 7.779322e+04 8.801822e+04
2.053256e+02 7.461773e+04 8.447894e+04
2.079426e+02 7.159602e+04 8.108103e+04
2.105930e+02 6.867523e+04 7.781752e+04
2.132772e+02 6.587402e+04 7.469155e+04
2.159956e+02 6.319107e+04 7.166471e+04
2.187486e+02 6.063143e+04 6.873927e+04
2.215367e+02 5.818066e+04 6.598394e+04
2.243604e+02 5.579443e+04 6.336032e+04
2.272201e+02 5.352508e+04 6.081897e+04
2.301162e+02 5.130936e+04 5.834089e+04
2.330492e+02 4.923303e+04 5.597820e+04
2.360196e+02 4.719913e+04 5.372674e+04
2.390278e+02 4.527426e+04 5.157886e+04
2.420744e+02 4.343095e+04 4.951788e+04
2.451599e+02 4.165827e+04 4.753804e+04
2.482846e+02 3.996976e+04 4.563370e+04
2.514492e+02 3.833535e+04 4.379553e+04
2.546542e+02 3.678669e+04 4.203547e+04
2.578999e+02 3.527971e+04 4.034838e+04
2.611871e+02 3.383941e+04 3.872652e+04
2.645161e+02 3.244692e+04 3.718392e+04
2.678876e+02 3.111758e+04 3.569877e+04
2.713020e+02 2.985170e+04 3.427077e+04
2.747600e+02 2.862644e+04 3.288160e+04
2.782620e+02 2.746102e+04 3.154766e+04
2.818087e+02 2.633319e+04 3.027669e+04
2.854006e+02 2.525786e+04 2.906517e+04
2.890383e+02 2.423688e+04 2.791216e+04
2.927223e+02 2.324281e+04 2.679483e+04
2.964533e+02 2.228883e+04 2.571593e+04
3.002318e+02 2.137912e+04 2.467300e+04
3.040585e+02 2.050199e+04 2.368733e+04
3.079340e+02 1.966954e+04 2.274487e+04
3.118588e+02 1.886192e+04 2.183902e+04
3.158337e+02 1.807651e+04 2.096692e+04
3.198593e+02 1.732927e+04 2.012440e+04
3.239362e+02 1.661541e+04 1.931210e+04
3.280650e+02 1.593245e+04 1.853167e+04
3.322464e+02 1.528043e+04 1.778584e+04
3.364812e+02 1.466771e+04 1.707486e+04
3.407699e+02 1.406401e+04 1.638971e+04
3.451133e+02 1.349043e+04 1.573233e+04
3.495121e+02 1.294123e+04 1.510039e+04
3.539669e+02 1.241899e+04 1.449108e+04
3.584785e+02 1.190027e+04 1.391002e+04
3.630476e+02 1.141337e+04 1.335495e+04
3.676749e+02 1.094810e+04 1.282204e+04
3.723612e+02 1.049427e+04 1.230889e+04
3.771073e+02 1.006688e+04 1.181334e+04
3.819138e+02 9.649982e+03 1.134082e+04
3.867816e+02 9.257939e+03 1.088839e+04
3.917114e+02 8.888906e+03 1.045248e+04
3.967041e+02 8.534583e+03 1.003444e+04
4.017604e+02 8.187231e+03 9.631916e+03
4.068812e+02 7.844521e+03 9.245938e+03
4.120672e+02 7.521211e+03 8.876084e+03
4.173194e+02 7.215050e+03 8.522636e+03
4.226384e+02 6.921419e+03 8.185248e+03
4.280253e+02 6.641313e+03 7.854927e+03
4.334808e+02 6.369223e+03 7.539987e+03
4.390059e+02 6.108231e+03 7.237004e+03
4.446014e+02 5.861909e+03 6.949695e+03
4.502682e+02 5.620906e+03 6.669476e+03
4.560072e+02 5.390309e+03 6.402763e+03
4.618194e+02 5.167840e+03 6.143734e+03
4.677057e+02 4.954697e+03 5.897820e+03
4.736670e+02 4.750345e+03 5.662873e+03
4.797042e+02 4.554468e+03 5.438575e+03
4.858185e+02 4.366222e+03 5.220462e+03
4.920106e+02 4.186001e+03 5.011728e+03
4.982817e+02 4.012513e+03 4.812569e+03
5.046327e+02 3.847327e+03 4.621017e+03
5.110646e+02 3.689053e+03 4.434120e+03
5.175786e+02 3.536752e+03 4.253634e+03
5.241755e+02 3.391509e+03 4.083668e+03
5.308566e+02 3.253346e+03 3.919708e+03
5.376228e+02 3.120409e+03 3.761205e+03
5.444752e+02 2.993131e+03 3.609365e+03
5.514150e+02 2.871349e+03 3.463807e+03
5.584432e+02 2.754537e+03 3.325147e+03
5.655610e+02 2.641665e+03 3.192687e+03
5.727696e+02 2.532990e+03 3.065507e+03
5.800700e+02 2.428879e+03 2.942088e+03
5.874635e+02 2.329215e+03 2.824248e+03
5.949511e+02 2.233664e+03 2.711340e+03
6.025343e+02 2.141743e+03 2.602946e+03
6.102141e+02 2.053814e+03 2.498718e+03
6.179917e+02 1.969669e+03 2.398638e+03
6.258686e+02 1.889095e+03 2.302463e+03
6.338458e+02 1.812165e+03 2.209898e+03
6.419246e+02 1.738520e+03 2.121054e+03
6.501065e+02 1.667269e+03 2.035940e+03
6.583926e+02 1.599159e+03 1.954752e+03
6.667844e+02 1.533899e+03 1.876774e+03
6.752831e+02 1.470450e+03 1.801652e+03
6.838901e+02 1.410450e+03 1.729536e+03
6.926068e+02 1.352976e+03 1.660308e+03
7.014347e+02 1.297433e+03 1.593850e+03
7.103750e+02 1.244838e+03 1.530052e+03
7.194293e+02 1.193855e+03 1.468808e+03
7.285991e+02 1.144668e+03 1.409982e+03
7.378856e+02 1.097388e+03 1.354215e+03
7.472906e+02 1.052256e+03 1.300655e+03
7.568154e+02 1.008991e+03 1.248554e+03
7.664616e+02 9.671831e+02 1.198991e+03
7.762308e+02 9.273067e+02 1.151135e+03
7.861245e+02 8.893522e+02 1.105161e+03
7.961443e+02 8.531123e+02 1.061196e+03
8.062918e+02 8.183805e+02 1.018828e+03
8.165687e+02 7.850627e+02 9.780069e+02
8.269765e+02 7.531013e+02 9.388004e+02
8.375170e+02 7.221458e+02 9.011432e+02
8.481918e+02 6.923004e+02 8.654373e+02
8.590027e+02 6.637906e+02 8.309084e+02
8.699514e+02 6.367285e+02 7.976885e+02
8.810396e+02 6.107697e+02 7.657520e+02
8.922692e+02 5.858692e+02 7.350667e+02
9.036419e+02 5.619839e+02 7.056111e+02
9.151595e+02 5.390723e+02 6.773358e+02
9.268240e+02 5.169542e+02 6.501936e+02
9.386371e+02 4.956905e+02 6.241207e+02
9.506008e+02 4.753041e+02 5.989625e+02
9.627170e+02 4.558512e+02 5.748053e+02
9.749876e+02 4.372002e+02 5.516147e+02
9.874146e+02 4.193189e+02 5.294138e+02
1.000000e+03 4.021997e+02 5.081669e+02
