# Energy(MeV) Phi16 Phi84
5.000000e-02 6.340957e+11 9.071538e+11
5.100225e-02 6.216698e+11 8.883097e+11
5.202458e-02 6.096750e+11 8.698415e+11
5.306741e-02 5.980440e+11 8.516075e+11
5.413114e-02 5.868239e+11 8.337255e+11
5.521620e-02 5.761085e+11 8.162734e+11
5.632300e-02 5.654936e+11 7.991864e+11
5.745199e-02 5.551099e+11 7.823951e+11
5.860361e-02 5.445167e+11 7.659555e+11
5.977832e-02 5.343058e+11 7.498886e+11
6.097657e-02 5.242722e+11 7.343375e+11
6.219884e-02 5.141986e+11 7.189621e+11
6.344561e-02 5.045478e+11 7.039856e+11
6.471737e-02 4.950774e+11 6.894115e+11
6.601463e-02 4.858567e+11 6.751382e+11
6.733789e-02 4.762431e+11 6.613617e+11
6.868767e-02 4.672702e+11 6.483642e+11
7.006451e-02 4.583125e+11 6.348829e+11
7.146895e-02 4.496437e+11 6.215307e+11
7.290154e-02 4.411929e+11 6.083082e+11
7.436284e-02 4.329602e+11 5.953894e+11
7.585344e-02 4.244694e+11 5.828416e+11
7.737392e-02 4.167701e+11 5.703364e+11
7.892487e-02 4.091067e+11 5.581707e+11
8.050691e-02 4.013773e+11 5.461928e+11
8.212067e-02 3.936522e+11 5.346434e+11
8.376677e-02 3.862014e+11 5.235145e+11
8.544587e-02 3.788990e+11 5.127920e+11
8.715862e-02 3.714444e+11 5.020869e+11
8.890571e-02 3.644996e+11 4.916383e+11
9.068782e-02 3.577325e+11 4.814712e+11
9.250565e-02 3.509156e+11 4.715461e+11
9.435992e-02 3.442192e+11 4.617864e+11
9.625136e-02 3.376854e+11 4.522277e+11
9.818071e-02 3.312748e+11 4.428309e+11
1.001487e-01 3.249851e+11 4.334948e+11
1.021562e-01 3.188253e+11 4.243077e+11
1.042039e-01 3.128053e+11 4.152887e+11
1.062927e-01 3.069322e+11 4.064604e+11
1.084233e-01 3.009934e+11 3.980082e+11
1.105966e-01 2.953642e+11 3.897117e+11
1.128135e-01 2.896783e+11 3.815078e+11
1.150749e-01 2.840040e+11 3.733504e+11
1.173816e-01 2.784003e+11 3.655472e+11
1.197345e-01 2.732030e+11 3.578121e+11
1.221345e-01 2.681430e+11 3.502459e+11
1.245827e-01 2.629666e+11 3.428388e+11
1.270800e-01 2.579147e+11 3.358411e+11
1.296273e-01 2.528815e+11 3.289807e+11
1.322256e-01 2.479801e+11 3.221280e+11
1.348761e-01 2.431683e+11 3.153268e+11
1.375797e-01 2.384890e+11 3.087081e+11
1.403374e-01 2.338766e+11 3.021887e+11
1.431505e-01 2.293059e+11 2.957827e+11
1.460199e-01 2.248239e+11 2.897447e+11
1.489469e-01 2.203112e+11 2.835979e+11
1.519325e-01 2.160803e+11 2.777049e+11
1.549780e-01 2.119860e+11 2.718630e+11
1.580845e-01 2.077948e+11 2.660570e+11
1.612533e-01 2.036507e+11 2.603819e+11
1.644856e-01 1.995584e+11 2.549866e+11
1.677827e-01 1.956244e+11 2.495791e+11
1.711459e-01 1.920479e+11 2.444916e+11
1.745765e-01 1.884370e+11 2.395154e+11
1.780759e-01 1.848152e+11 2.345254e+11
1.816454e-01 1.812454e+11 2.296913e+11
1.852865e-01 1.776524e+11 2.251727e+11
1.890005e-01 1.742408e+11 2.203995e+11
1.927890e-01 1.707672e+11 2.157668e+11
1.966535e-01 1.673270e+11 2.114395e+11
2.005954e-01 1.639053e+11 2.072125e+11
2.046163e-01 1.606047e+11 2.029159e+11
2.087178e-01 1.575105e+11 1.988091e+11
2.129015e-01 1.546351e+11 1.947400e+11
2.171691e-01 1.516438e+11 1.906751e+11
2.215223e-01 1.487395e+11 1.867460e+11
2.259627e-01 1.459073e+11 1.827725e+11
2.304921e-01 1.430960e+11 1.790563e+11
2.351123e-01 1.402648e+11 1.753472e+11
2.398251e-01 1.375275e+11 1.715871e+11
2.446324e-01 1.349505e+11 1.680671e+11
2.495360e-01 1.322579e+11 1.645915e+11
2.545379e-01 1.295968e+11 1.611601e+11
2.596401e-01 1.270683e+11 1.578266e+11
2.648446e-01 1.245632e+11 1.544948e+11
2.701534e-01 1.221367e+11 1.513349e+11
2.755686e-01 1.197379e+11 1.482567e+11
2.810923e-01 1.173021e+11 1.451376e+11
2.867268e-01 1.149922e+11 1.421708e+11
2.924742e-01 1.127276e+11 1.392495e+11
2.983368e-01 1.105219e+11 1.363417e+11
3.043170e-01 1.084042e+11 1.333922e+11
3.104170e-01 1.063207e+11 1.306814e+11
3.166393e-01 1.043176e+11 1.279156e+11
3.229863e-01 1.023509e+11 1.252080e+11
3.294605e-01 1.003930e+11 1.225950e+11
3.360645e-01 9.845360e+10 1.199438e+11
3.428009e-01 9.655331e+10 1.173380e+11
3.496723e-01 9.468233e+10 1.148635e+11
3.566815e-01 9.285807e+10 1.124691e+11
3.638311e-01 9.099492e+10 1.101252e+11
3.711241e-01 8.921099e+10 1.079203e+11
3.785633e-01 8.748825e+10 1.056538e+11
3.861515e-01 8.573031e+10 1.035891e+11
3.938919e-01 8.399877e+10 1.014692e+11
4.017874e-01 8.230347e+10 9.934521e+10
4.098412e-01 8.069400e+10 9.728990e+10
4.180565e-01 7.903639e+10 9.524057e+10
4.264364e-01 7.749117e+10 9.324320e+10
4.349843e-01 7.598143e+10 9.128674e+10
4.437035e-01 7.444956e+10 8.935140e+10
4.525975e-01 7.291885e+10 8.748212e+10
4.616698e-01 7.142202e+10 8.561538e+10
4.709239e-01 6.997439e+10 8.385136e+10
4.803635e-01 6.854982e+10 8.212541e+10
4.899924e-01 6.708559e+10 8.043583e+10
4.998143e-01 6.575530e+10 7.878828e+10
5.098330e-01 6.438685e+10 7.710360e+10
5.200526e-01 6.305351e+10 7.554981e+10
5.304770e-01 6.184559e+10 7.391359e+10
5.411103e-01 6.060075e+10 7.241019e+10
5.519569e-01 5.938890e+10 7.093734e+10
5.630208e-01 5.816538e+10 6.945775e+10
5.743065e-01 5.698932e+10 6.801598e+10
5.858184e-01 5.584768e+10 6.658026e+10
5.975611e-01 5.471351e+10 6.521965e+10
6.095392e-01 5.361034e+10 6.388207e+10
6.217573e-01 5.248968e+10 6.257703e+10
6.342204e-01 5.140884e+10 6.125488e+10
6.469333e-01 5.032388e+10 5.995575e+10
6.599011e-01 4.929906e+10 5.870896e+10
6.731287e-01 4.828966e+10 5.748722e+10
6.866215e-01 4.730629e+10 5.626590e+10
7.003848e-01 4.633676e+10 5.505521e+10
7.144240e-01 4.546615e+10 5.389085e+10
7.287445e-01 4.455859e+10 5.279335e+10
7.433522e-01 4.363802e+10 5.164279e+10
7.582526e-01 4.273095e+10 5.057612e+10
7.734517e-01 4.183042e+10 4.951848e+10
7.889555e-01 4.095735e+10 4.857210e+10
8.047701e-01 4.010414e+10 4.757459e+10
8.209016e-01 3.925023e+10 4.659333e+10
8.373565e-01 3.842688e+10 4.562538e+10
8.541413e-01 3.764661e+10 4.468357e+10
8.712625e-01 3.687215e+10 4.376652e+10
8.887268e-01 3.612933e+10 4.283543e+10
9.065413e-01 3.535876e+10 4.194207e+10
9.247129e-01 3.462838e+10 4.105667e+10
9.432487e-01 3.387521e+10 4.021099e+10
9.621560e-01 3.313311e+10 3.937649e+10
9.814423e-01 3.241875e+10 3.856640e+10
1.001115e+00 3.174549e+10 3.777098e+10
1.021183e+00 3.105627e+10 3.697163e+10
1.041652e+00 3.039362e+10 3.619020e+10
1.062532e+00 2.974282e+10 3.546101e+10
1.083830e+00 2.909523e+10 3.471529e+10
1.105556e+00 2.846355e+10 3.399303e+10
1.127716e+00 2.785368e+10 3.326650e+10
1.150321e+00 2.724822e+10 3.257538e+10
1.173379e+00 2.666520e+10 3.189573e+10
1.196900e+00 2.609194e+10 3.124156e+10
1.220892e+00 2.549103e+10 3.057236e+10
1.245364e+00 2.495850e+10 2.992964e+10
1.270327e+00 2.441087e+10 2.928789e+10
1.295791e+00 2.386759e+10 2.865398e+10
1.321765e+00 2.333537e+10 2.805307e+10
1.348260e+00 2.283230e+10 2.747723e+10
1.375286e+00 2.232771e+10 2.690674e+10
1.402853e+00 2.184208e+10 2.633220e+10
1.430973e+00 2.136958e+10 2.578088e+10
1.459657e+00 2.088543e+10 2.522467e+10
1.488916e+00 2.040842e+10 2.467507e+10
1.518761e+00 1.994750e+10 2.414143e+10
1.549204e+00 1.951064e+10 2.363013e+10
1.580258e+00 1.906461e+10 2.313449e+10
1.611934e+00 1.864671e+10 2.263392e+10
1.644245e+00 1.824018e+10 2.214515e+10
1.677204e+00 1.784147e+10 2.166592e+10
1.710823e+00 1.744840e+10 2.121307e+10
1.745117e+00 1.706747e+10 2.074488e+10
1.780097e+00 1.668398e+10 2.030996e+10
1.815779e+00 1.632507e+10 1.987731e+10
1.852176e+00 1.595705e+10 1.944089e+10
1.889303e+00 1.558128e+10 1.901550e+10
1.927174e+00 1.522664e+10 1.859705e+10
1.965804e+00 1.487411e+10 1.817640e+10
2.005209e+00 1.453733e+10 1.778600e+10
2.045403e+00 1.421446e+10 1.739144e+10
2.086403e+00 1.388780e+10 1.700108e+10
2.128224e+00 1.356321e+10 1.661762e+10
2.170885e+00 1.326148e+10 1.625626e+10
2.214400e+00 1.296544e+10 1.588986e+10
2.258787e+00 1.265646e+10 1.554376e+10
2.304064e+00 1.236159e+10 1.520182e+10
2.350249e+00 1.207183e+10 1.486291e+10
2.397360e+00 1.178919e+10 1.453156e+10
2.445415e+00 1.150661e+10 1.421434e+10
2.494433e+00 1.123008e+10 1.388815e+10
2.544434e+00 1.096659e+10 1.356604e+10
2.595437e+00 1.071694e+10 1.325108e+10
2.647462e+00 1.046961e+10 1.295062e+10
2.700530e+00 1.021877e+10 1.265510e+10
2.754662e+00 9.976809e+09 1.236166e+10
2.809879e+00 9.745168e+09 1.207652e+10
2.866203e+00 9.515291e+09 1.179988e+10
2.923656e+00 9.293610e+09 1.152874e+10
2.982260e+00 9.076008e+09 1.125985e+10
3.042039e+00 8.856004e+09 1.098557e+10
3.103017e+00 8.639762e+09 1.072147e+10
3.165216e+00 8.428268e+09 1.047280e+10
3.228663e+00 8.221479e+09 1.022239e+10
3.293381e+00 8.019855e+09 9.984990e+09
3.359397e+00 7.819093e+09 9.752732e+09
3.426736e+00 7.623307e+09 9.514862e+09
3.495424e+00 7.436560e+09 9.288261e+09
3.565490e+00 7.249065e+09 9.057182e+09
3.636960e+00 7.067669e+09 8.838689e+09
3.709862e+00 6.892041e+09 8.622455e+09
3.784226e+00 6.721271e+09 8.412985e+09
3.860081e+00 6.552528e+09 8.206795e+09
3.937456e+00 6.385085e+09 8.003006e+09
4.016382e+00 6.223100e+09 7.808023e+09
4.096890e+00 6.066432e+09 7.619935e+09
4.179012e+00 5.912791e+09 7.434431e+09
4.262780e+00 5.762492e+09 7.247864e+09
4.348227e+00 5.618120e+09 7.065594e+09
4.435387e+00 5.477318e+09 6.894231e+09
4.524294e+00 5.336557e+09 6.715678e+09
4.614983e+00 5.201789e+09 6.552912e+09
4.707490e+00 5.066216e+09 6.392154e+09
4.801851e+00 4.936437e+09 6.228965e+09
4.898104e+00 4.807627e+09 6.071654e+09
4.996286e+00 4.678848e+09 5.920310e+09
5.096436e+00 4.555272e+09 5.774331e+09
5.198594e+00 4.437292e+09 5.629081e+09
5.302799e+00 4.319504e+09 5.481741e+09
5.409093e+00 4.203145e+09 5.336128e+09
5.517518e+00 4.089406e+09 5.195167e+09
5.628116e+00 3.979693e+09 5.055459e+09
5.740932e+00 3.872493e+09 4.923561e+09
5.856008e+00 3.767704e+09 4.797700e+09
5.973391e+00 3.663799e+09 4.666913e+09
6.093127e+00 3.561386e+09 4.538583e+09
6.215264e+00 3.463477e+09 4.414438e+09
6.339848e+00 3.366655e+09 4.293044e+09
6.466930e+00 3.273281e+09 4.173859e+09
6.596559e+00 3.179190e+09 4.060891e+09
6.728787e+00 3.091625e+09 3.946226e+09
6.863665e+00 3.005468e+09 3.837732e+09
7.001246e+00 2.920143e+09 3.729785e+09
7.141586e+00 2.837814e+09 3.624141e+09
7.284738e+00 2.757337e+09 3.520840e+09
7.430760e+00 2.678747e+09 3.417285e+09
7.579709e+00 2.600331e+09 3.315898e+09
7.731644e+00 2.523846e+09 3.218208e+09
7.886624e+00 2.449087e+09 3.123198e+09
8.044711e+00 2.377814e+09 3.028182e+09
8.205967e+00 2.306460e+09 2.941967e+09
8.370455e+00 2.236792e+09 2.855894e+09
8.538240e+00 2.169381e+09 2.767761e+09
8.709388e+00 2.103539e+09 2.681923e+09
8.883967e+00 2.038852e+09 2.597563e+09
9.062045e+00 1.975528e+09 2.521101e+09
9.243693e+00 1.913646e+09 2.444923e+09
9.428983e+00 1.853599e+09 2.367021e+09
9.617986e+00 1.795944e+09 2.292650e+09
9.810778e+00 1.739055e+09 2.217363e+09
1.000743e+01 1.683344e+09 2.147943e+09
1.020803e+01 1.628153e+09 2.079140e+09
1.041265e+01 1.574281e+09 2.009115e+09
1.062137e+01 1.522679e+09 1.942100e+09
1.083428e+01 1.470756e+09 1.875604e+09
1.105145e+01 1.420888e+09 1.811894e+09
1.127297e+01 1.372553e+09 1.748692e+09
1.149894e+01 1.325263e+09 1.686383e+09
1.172944e+01 1.279219e+09 1.628718e+09
1.196455e+01 1.234805e+09 1.572486e+09
1.220438e+01 1.192248e+09 1.517368e+09
1.244902e+01 1.150808e+09 1.462662e+09
1.269856e+01 1.110462e+09 1.411146e+09
1.295310e+01 1.070593e+09 1.361168e+09
1.321274e+01 1.031878e+09 1.312946e+09
1.347759e+01 9.954827e+08 1.265182e+09
1.374775e+01 9.601124e+08 1.218611e+09
1.402332e+01 9.247214e+08 1.173881e+09
1.430442e+01 8.909262e+08 1.130597e+09
1.459115e+01 8.568627e+08 1.087581e+09
1.488362e+01 8.257857e+08 1.047300e+09
1.518197e+01 7.948593e+08 1.007216e+09
1.548629e+01 7.640738e+08 9.692086e+08
1.579671e+01 7.340687e+08 9.315122e+08
1.611335e+01 7.059646e+08 8.950468e+08
1.643634e+01 6.785204e+08 8.585101e+08
1.676581e+01 6.509716e+08 8.237530e+08
1.710188e+01 6.254996e+08 7.915333e+08
1.744468e+01 6.003151e+08 7.592868e+08
1.779436e+01 5.751281e+08 7.274576e+08
1.815105e+01 5.514002e+08 6.977057e+08
1.851488e+01 5.270950e+08 6.676582e+08
1.888601e+01 5.045828e+08 6.389223e+08
1.926458e+01 4.821104e+08 6.117834e+08
1.965074e+01 4.605751e+08 5.862054e+08
2.004464e+01 4.394505e+08 5.602038e+08
2.044643e+01 4.196343e+08 5.347378e+08
2.085628e+01 4.003381e+08 5.114769e+08
2.127434e+01 3.822071e+08 4.883535e+08
2.170078e+01 3.641776e+08 4.659402e+08
2.213577e+01 3.465953e+08 4.445121e+08
2.257948e+01 3.289723e+08 4.235744e+08
2.303209e+01 3.121692e+08 4.032427e+08
2.349376e+01 2.962540e+08 3.841238e+08
2.396469e+01 2.824342e+08 3.658672e+08
2.444506e+01 2.684570e+08 3.475653e+08
2.493506e+01 2.550624e+08 3.303805e+08
2.543488e+01 2.424589e+08 3.137666e+08
2.594472e+01 2.296685e+08 2.979729e+08
2.646478e+01 2.178090e+08 2.835060e+08
2.699527e+01 2.061266e+08 2.688290e+08
2.753639e+01 1.951914e+08 2.550301e+08
2.808835e+01 1.846529e+08 2.415363e+08
2.865138e+01 1.746788e+08 2.284360e+08
2.922570e+01 1.647809e+08 2.160181e+08
2.981152e+01 1.549272e+08 2.045148e+08
3.040909e+01 1.458536e+08 1.934408e+08
3.101864e+01 1.372602e+08 1.826134e+08
3.164041e+01 1.291615e+08 1.721803e+08
3.227464e+01 1.210412e+08 1.624986e+08
3.292158e+01 1.135418e+08 1.536365e+08
3.358149e+01 1.064957e+08 1.446254e+08
3.425463e+01 9.969252e+07 1.359074e+08
3.494126e+01 9.337798e+07 1.279433e+08
3.564165e+01 8.736092e+07 1.203757e+08
3.635609e+01 8.163942e+07 1.131830e+08
3.708484e+01 7.636749e+07 1.063172e+08
3.782820e+01 7.131871e+07 9.983390e+07
3.858647e+01 6.639227e+07 9.347055e+07
3.935993e+01 6.173304e+07 8.744311e+07
4.014890e+01 5.738648e+07 8.166922e+07
4.095368e+01 5.340461e+07 7.645942e+07
4.177459e+01 4.980100e+07 7.166325e+07
4.261196e+01 4.639184e+07 6.689666e+07
4.346611e+01 4.318738e+07 6.259464e+07
4.433739e+01 4.018558e+07 5.838173e+07
4.522613e+01 3.741499e+07 5.425908e+07
4.613268e+01 3.485442e+07 5.041327e+07
4.705741e+01 3.245416e+07 4.680532e+07
4.800067e+01 3.020245e+07 4.355678e+07
4.896284e+01 2.809626e+07 4.051358e+07
4.994430e+01 2.616722e+07 3.767636e+07
5.094543e+01 2.433640e+07 3.503836e+07
5.196662e+01 2.266981e+07 3.256005e+07
5.300829e+01 2.112236e+07 3.020416e+07
5.407084e+01 1.964656e+07 2.801439e+07
5.515468e+01 1.827698e+07 2.598314e+07
5.626026e+01 1.701378e+07 2.408337e+07
5.738799e+01 1.584734e+07 2.234317e+07
5.853833e+01 1.475762e+07 2.074042e+07
5.971172e+01 1.373135e+07 1.922650e+07
6.090864e+01 1.277461e+07 1.783226e+07
6.212955e+01 1.188540e+07 1.654404e+07
6.337493e+01 1.106396e+07 1.533918e+07
6.464528e+01 1.029947e+07 1.423801e+07
6.594109e+01 9.587209e+06 1.320462e+07
6.726287e+01 8.927528e+06 1.224598e+07
6.861115e+01 8.318163e+06 1.135741e+07
6.998645e+01 7.743430e+06 1.052743e+07
7.138933e+01 7.206177e+06 9.759445e+06
7.282032e+01 6.702731e+06 9.036063e+06
7.428000e+01 6.245534e+06 8.376850e+06
7.576894e+01 5.812015e+06 7.774463e+06
7.728772e+01 5.408847e+06 7.210756e+06
7.883694e+01 5.031912e+06 6.690644e+06
8.041722e+01 4.681842e+06 6.211026e+06
8.202918e+01 4.357070e+06 5.762646e+06
8.367345e+01 4.055242e+06 5.345033e+06
8.535068e+01 3.774600e+06 4.968565e+06
8.706153e+01 3.511664e+06 4.609696e+06
8.880667e+01 3.270476e+06 4.274557e+06
9.058679e+01 3.043504e+06 3.966398e+06
9.240260e+01 2.831350e+06 3.678101e+06
9.425480e+01 2.638660e+06 3.413203e+06
9.614413e+01 2.454896e+06 3.168579e+06
9.807133e+01 2.283903e+06 2.943492e+06
1.000372e+02 2.125160e+06 2.729981e+06
1.020424e+02 1.974823e+06 2.536785e+06
1.040878e+02 1.838726e+06 2.352030e+06
1.061743e+02 1.709226e+06 2.182772e+06
1.083025e+02 1.589480e+06 2.028437e+06
1.104734e+02 1.477846e+06 1.882586e+06
1.126879e+02 1.371118e+06 1.746838e+06
1.149467e+02 1.275633e+06 1.621340e+06
1.172508e+02 1.186944e+06 1.505125e+06
1.196011e+02 1.103166e+06 1.395002e+06
1.219985e+02 1.025887e+06 1.296342e+06
1.244439e+02 9.528981e+05 1.202973e+06
1.269384e+02 8.845954e+05 1.116113e+06
1.294828e+02 8.223257e+05 1.035377e+06
1.320783e+02 7.647226e+05 9.597913e+05
1.347258e+02 7.108651e+05 8.917499e+05
1.374264e+02 6.620542e+05 8.282013e+05
1.401811e+02 6.166209e+05 7.683772e+05
1.429910e+02 5.727460e+05 7.138785e+05
1.458573e+02 5.324043e+05 6.626410e+05
1.487810e+02 4.949692e+05 6.158247e+05
1.517633e+02 4.601077e+05 5.717263e+05
1.548053e+02 4.281189e+05 5.304737e+05
1.579084e+02 3.983640e+05 4.919199e+05
1.610737e+02 3.700901e+05 4.567930e+05
1.643024e+02 3.442028e+05 4.244795e+05
1.675958e+02 3.196108e+05 3.944946e+05
1.709552e+02 2.971291e+05 3.667076e+05
1.743820e+02 2.761197e+05 3.406700e+05
1.778775e+02 2.567376e+05 3.164716e+05
1.814430e+02 2.388449e+05 2.942008e+05
1.850801e+02 2.218086e+05 2.735930e+05
1.887900e+02 2.062706e+05 2.544342e+05
1.925743e+02 1.915109e+05 2.363590e+05
1.964344e+02 1.778548e+05 2.196852e+05
2.003719e+02 1.650216e+05 2.039691e+05
2.043883e+02 1.532480e+05 1.896375e+05
2.084853e+02 1.422897e+05 1.761344e+05
2.126644e+02 1.319620e+05 1.635988e+05
2.169272e+02 1.225903e+05 1.519596e+05
2.212755e+02 1.140265e+05 1.412891e+05
2.257109e+02 1.059794e+05 1.311935e+05
2.302353e+02 9.848600e+04 1.219377e+05
2.348503e+02 9.139453e+04 1.133696e+05
2.395579e+02 8.491784e+04 1.053959e+05
2.443598e+02 7.885667e+04 9.783899e+04
2.492580e+02 7.318106e+04 9.082046e+04
2.542544e+02 6.793588e+04 8.441678e+04
2.593509e+02 6.311123e+04 7.845867e+04
2.645495e+02 5.862696e+04 7.294212e+04
2.698524e+02 5.439576e+04 6.779637e+04
2.752616e+02 5.052194e+04 6.309693e+04
2.807792e+02 4.689050e+04 5.868860e+04
2.864074e+02 4.358669e+04 5.460977e+04
2.921484e+02 4.047258e+04 5.079275e+04
2.980045e+02 3.758687e+04 4.722098e+04
3.039780e+02 3.489010e+04 4.392034e+04
3.100712e+02 3.237692e+04 4.081614e+04
3.162865e+02 3.004837e+04 3.793574e+04
3.226265e+02 2.789716e+04 3.529758e+04
3.290935e+02 2.589165e+04 3.284860e+04
3.356901e+02 2.401808e+04 3.053320e+04
3.424190e+02 2.231642e+04 2.837958e+04
3.492828e+02 2.071101e+04 2.638179e+04
3.562841e+02 1.922112e+04 2.454407e+04
3.634258e+02 1.784333e+04 2.285702e+04
3.707107e+02 1.655398e+04 2.126061e+04
3.781415e+02 1.535049e+04 1.976048e+04
3.857213e+02 1.424253e+04 1.834788e+04
3.934531e+02 1.321759e+04 1.707642e+04
4.013398e+02 1.224864e+04 1.588179e+04
4.093847e+02 1.135807e+04 1.477363e+04
4.175907e+02 1.053495e+04 1.375443e+04
4.259613e+02 9.769470e+03 1.278515e+04
4.344997e+02 9.065955e+03 1.187976e+04
4.432092e+02 8.414347e+03 1.104950e+04
4.520933e+02 7.808054e+03 1.029981e+04
4.611555e+02 7.249649e+03 9.566293e+03
4.703993e+02 6.723162e+03 8.889016e+03
4.798284e+02 6.236314e+03 8.264993e+03
4.894465e+02 5.778717e+03 7.682186e+03
4.992574e+02 5.357652e+03 7.145893e+03
5.092650e+02 4.966671e+03 6.648653e+03
5.194732e+02 4.603783e+03 6.188984e+03
5.298860e+02 4.276708e+03 5.768145e+03
5.405075e+02 3.969484e+03 5.367033e+03
5.513420e+02 3.682959e+03 4.994532e+03
5.623936e+02 3.414710e+03 4.647034e+03
5.736667e+02 3.165115e+03 4.326437e+03
5.851658e+02 2.937703e+03 4.025466e+03
5.968954e+02 2.724398e+03 3.745035e+03
6.088601e+02 2.526582e+03 3.486244e+03
6.210647e+02 2.344301e+03 3.245908e+03
6.335139e+02 2.174408e+03 3.019480e+03
6.462126e+02 2.017779e+03 2.810516e+03
6.591659e+02 1.871879e+03 2.611798e+03
6.723788e+02 1.738801e+03 2.430464e+03
6.858566e+02 1.614592e+03 2.261400e+03
6.996046e+02 1.496989e+03 2.103912e+03
7.136281e+02 1.389535e+03 1.957745e+03
7.279327e+02 1.290893e+03 1.821652e+03
7.425240e+02 1.197246e+03 1.696248e+03
7.574079e+02 1.111374e+03 1.579173e+03
7.725901e+02 1.031077e+03 1.469739e+03
7.880766e+02 9.558653e+02 1.368193e+03
8.038735e+02 8.856075e+02 1.273541e+03
8.199871e+02 8.217577e+02 1.185518e+03
8.364237e+02 7.626100e+02 1.104414e+03
8.531897e+02 7.074241e+02 1.027855e+03
8.702918e+02 6.560797e+02 9.553637e+02
8.877368e+02 6.082308e+02 8.890657e+02
9.055314e+02 5.642048e+02 8.278105e+02
9.236827e+02 5.239651e+02 7.711430e+02
9.421978e+02 4.863721e+02 7.181154e+02
9.610841e+02 4.512464e+02 6.682771e+02
9.803490e+02 4.184509e+02 6.221847e+02
1.000000e+03 3.876506e+02 5.792282e+02
