# Energy(MeV) Fluence_Planare_Median(cm^-2*MeV^-1)
1.000000e+00 1.959924e+09
1.013939e+00 1.934236e+09
1.028073e+00 1.908871e+09
1.042404e+00 1.883824e+09
1.056935e+00 1.859090e+09
1.071668e+00 1.834667e+09
1.086606e+00 1.810670e+09
1.101753e+00 1.786884e+09
1.117111e+00 1.763570e+09
1.132683e+00 1.740544e+09
1.148472e+00 1.717805e+09
1.164481e+00 1.695232e+09
1.180713e+00 1.672925e+09
1.197171e+00 1.650863e+09
1.213859e+00 1.629071e+09
1.230780e+00 1.607553e+09
1.247936e+00 1.586423e+09
1.265332e+00 1.565558e+09
1.282970e+00 1.545448e+09
1.300854e+00 1.525692e+09
1.318987e+00 1.505601e+09
1.337373e+00 1.486115e+09
1.356015e+00 1.466818e+09
1.374917e+00 1.447253e+09
1.394083e+00 1.428345e+09
1.413516e+00 1.409692e+09
1.433219e+00 1.390974e+09
1.453198e+00 1.372907e+09
1.473454e+00 1.354916e+09
1.493993e+00 1.336791e+09
1.514819e+00 1.319229e+09
1.535935e+00 1.301947e+09
1.557345e+00 1.284462e+09
1.579053e+00 1.267279e+09
1.601064e+00 1.250649e+09
1.623382e+00 1.234132e+09
1.646012e+00 1.217862e+09
1.668956e+00 1.201958e+09
1.692220e+00 1.185897e+09
1.715809e+00 1.170016e+09
1.739726e+00 1.154371e+09
1.763977e+00 1.138657e+09
1.788566e+00 1.123382e+09
1.813498e+00 1.108614e+09
1.838777e+00 1.093920e+09
1.864409e+00 1.079357e+09
1.890397e+00 1.064669e+09
1.916748e+00 1.050552e+09
1.943467e+00 1.036682e+09
1.970558e+00 1.022544e+09
1.998026e+00 1.008393e+09
2.025878e+00 9.947034e+08
2.054117e+00 9.813532e+08
2.082751e+00 9.681759e+08
2.111783e+00 9.550026e+08
2.141220e+00 9.421374e+08
2.171068e+00 9.291489e+08
2.201331e+00 9.161569e+08
2.232016e+00 9.034635e+08
2.263130e+00 8.910892e+08
2.294676e+00 8.789337e+08
2.326663e+00 8.671494e+08
2.359095e+00 8.552103e+08
2.391980e+00 8.435729e+08
2.425323e+00 8.319618e+08
2.459130e+00 8.202665e+08
2.493409e+00 8.090051e+08
2.528166e+00 7.980147e+08
2.563407e+00 7.870278e+08
2.599140e+00 7.761876e+08
2.635371e+00 7.653267e+08
2.672106e+00 7.545997e+08
2.709354e+00 7.442769e+08
2.747121e+00 7.337386e+08
2.785414e+00 7.234781e+08
2.824241e+00 7.135537e+08
2.863610e+00 7.033503e+08
2.903527e+00 6.932705e+08
2.944000e+00 6.831974e+08
2.985038e+00 6.734882e+08
3.026648e+00 6.641084e+08
3.068838e+00 6.546788e+08
3.111616e+00 6.453161e+08
3.154990e+00 6.360153e+08
3.198969e+00 6.269750e+08
3.243561e+00 6.179809e+08
3.288774e+00 6.092299e+08
3.334618e+00 6.006292e+08
3.381101e+00 5.922204e+08
3.428231e+00 5.836218e+08
3.476019e+00 5.751532e+08
3.524473e+00 5.667453e+08
3.573602e+00 5.586591e+08
3.623416e+00 5.506524e+08
3.673925e+00 5.427716e+08
3.725137e+00 5.349119e+08
3.777064e+00 5.271838e+08
3.829714e+00 5.195075e+08
3.883098e+00 5.119700e+08
3.937226e+00 5.044159e+08
3.992109e+00 4.971840e+08
4.047757e+00 4.898122e+08
4.104181e+00 4.824554e+08
4.161391e+00 4.752710e+08
4.219398e+00 4.682602e+08
4.278214e+00 4.613129e+08
4.337850e+00 4.544315e+08
4.398317e+00 4.477237e+08
4.459628e+00 4.410311e+08
4.521792e+00 4.344529e+08
4.584824e+00 4.278603e+08
4.648734e+00 4.213038e+08
4.713535e+00 4.150489e+08
4.779239e+00 4.088328e+08
4.845859e+00 4.026182e+08
4.913407e+00 3.964073e+08
4.981898e+00 3.903130e+08
5.051342e+00 3.842779e+08
5.121755e+00 3.784172e+08
5.193150e+00 3.725845e+08
5.265540e+00 3.667308e+08
5.338938e+00 3.610882e+08
5.413360e+00 3.554652e+08
5.488820e+00 3.499815e+08
5.565331e+00 3.445423e+08
5.642908e+00 3.392031e+08
5.721568e+00 3.339128e+08
5.801323e+00 3.287703e+08
5.882190e+00 3.235447e+08
5.964185e+00 3.184364e+08
6.047322e+00 3.133755e+08
6.131619e+00 3.085319e+08
6.217090e+00 3.037008e+08
6.303753e+00 2.988470e+08
6.391624e+00 2.941512e+08
6.480720e+00 2.893039e+08
6.571058e+00 2.846574e+08
6.662655e+00 2.801216e+08
6.755528e+00 2.756193e+08
6.849697e+00 2.711497e+08
6.945178e+00 2.667657e+08
7.041990e+00 2.623835e+08
7.140151e+00 2.580959e+08
7.239681e+00 2.538460e+08
7.340598e+00 2.496156e+08
7.442922e+00 2.454404e+08
7.546673e+00 2.413896e+08
7.651869e+00 2.373727e+08
7.758532e+00 2.333895e+08
7.866682e+00 2.294784e+08
7.976339e+00 2.256419e+08
8.087525e+00 2.218284e+08
8.200261e+00 2.181347e+08
8.314568e+00 2.144658e+08
8.430468e+00 2.108027e+08
8.547985e+00 2.072383e+08
8.667139e+00 2.037273e+08
8.787954e+00 2.002345e+08
8.910453e+00 1.967410e+08
9.034660e+00 1.933267e+08
9.160598e+00 1.899491e+08
9.288292e+00 1.866349e+08
9.417766e+00 1.832956e+08
9.549045e+00 1.800661e+08
9.682153e+00 1.769209e+08
9.817117e+00 1.738005e+08
9.953962e+00 1.706675e+08
1.009272e+01 1.676535e+08
1.023340e+01 1.645958e+08
1.037605e+01 1.616032e+08
1.052069e+01 1.586846e+08
1.066734e+01 1.558254e+08
1.081604e+01 1.529847e+08
1.096681e+01 1.501736e+08
1.111968e+01 1.474150e+08
1.127468e+01 1.446804e+08
1.143184e+01 1.419586e+08
1.159120e+01 1.392878e+08
1.175277e+01 1.366359e+08
1.191660e+01 1.340382e+08
1.208271e+01 1.314681e+08
1.225114e+01 1.289351e+08
1.242191e+01 1.264537e+08
1.259506e+01 1.240224e+08
1.277063e+01 1.215942e+08
1.294865e+01 1.192283e+08
1.312915e+01 1.168984e+08
1.331216e+01 1.145949e+08
1.349772e+01 1.123275e+08
1.368587e+01 1.100857e+08
1.387665e+01 1.078733e+08
1.407008e+01 1.056779e+08
1.426621e+01 1.035477e+08
1.446507e+01 1.014337e+08
1.466671e+01 9.934738e+07
1.487115e+01 9.730793e+07
1.507845e+01 9.527870e+07
1.528864e+01 9.331545e+07
1.550175e+01 9.135932e+07
1.571784e+01 8.943773e+07
1.593694e+01 8.756070e+07
1.615909e+01 8.568659e+07
1.638434e+01 8.384976e+07
1.661273e+01 8.203573e+07
1.684430e+01 8.025228e+07
1.707910e+01 7.851934e+07
1.731717e+01 7.679928e+07
1.755856e+01 7.511582e+07
1.780332e+01 7.342700e+07
1.805149e+01 7.179390e+07
1.830312e+01 7.019892e+07
1.855825e+01 6.861489e+07
1.881694e+01 6.703820e+07
1.907924e+01 6.548428e+07
1.934520e+01 6.396070e+07
1.961486e+01 6.246794e+07
1.988828e+01 6.099712e+07
2.016551e+01 5.956651e+07
2.044661e+01 5.815161e+07
2.073162e+01 5.674564e+07
2.102061e+01 5.538313e+07
2.131362e+01 5.405024e+07
2.161073e+01 5.272875e+07
2.191197e+01 5.143739e+07
2.221741e+01 5.016392e+07
2.252711e+01 4.891479e+07
2.284112e+01 4.768925e+07
2.315951e+01 4.649252e+07
2.348235e+01 4.531727e+07
2.380968e+01 4.416156e+07
2.414157e+01 4.302730e+07
2.447809e+01 4.189726e+07
2.481930e+01 4.080407e+07
2.516527e+01 3.972328e+07
2.551606e+01 3.866648e+07
2.587174e+01 3.763905e+07
2.623238e+01 3.662311e+07
2.659804e+01 3.563328e+07
2.696881e+01 3.466104e+07
2.734474e+01 3.371256e+07
2.772591e+01 3.278096e+07
2.811239e+01 3.186971e+07
2.850426e+01 3.098121e+07
2.890160e+01 3.010326e+07
2.930447e+01 2.924260e+07
2.971296e+01 2.841325e+07
3.012714e+01 2.758892e+07
3.054710e+01 2.679328e+07
3.097291e+01 2.600506e+07
3.140465e+01 2.524046e+07
3.184242e+01 2.448663e+07
3.228628e+01 2.375686e+07
3.273634e+01 2.304604e+07
3.319266e+01 2.234265e+07
3.365535e+01 2.164708e+07
3.412449e+01 2.096818e+07
3.460016e+01 2.030519e+07
3.508247e+01 1.967164e+07
3.557150e+01 1.904047e+07
3.606735e+01 1.843253e+07
3.657011e+01 1.784331e+07
3.707988e+01 1.726556e+07
3.759675e+01 1.670479e+07
3.812083e+01 1.615843e+07
3.865221e+01 1.561813e+07
3.919100e+01 1.509507e+07
3.973730e+01 1.457958e+07
4.029122e+01 1.407936e+07
4.085286e+01 1.359573e+07
4.142232e+01 1.312786e+07
4.199973e+01 1.266859e+07
4.258518e+01 1.222278e+07
4.317880e+01 1.178664e+07
4.378069e+01 1.135837e+07
4.439097e+01 1.094720e+07
4.500975e+01 1.054977e+07
4.563716e+01 1.016376e+07
4.627332e+01 9.782760e+06
4.691835e+01 9.412271e+06
4.757236e+01 9.061139e+06
4.823549e+01 8.713360e+06
4.890787e+01 8.379548e+06
4.958962e+01 8.059723e+06
5.028087e+01 7.746775e+06
5.098176e+01 7.440292e+06
5.169242e+01 7.147021e+06
5.241298e+01 6.859187e+06
5.314359e+01 6.587331e+06
5.388438e+01 6.319756e+06
5.463550e+01 6.063651e+06
5.539709e+01 5.818231e+06
5.616930e+01 5.582034e+06
5.695227e+01 5.355096e+06
5.774615e+01 5.132387e+06
5.855110e+01 4.923598e+06
5.936727e+01 4.714343e+06
6.019482e+01 4.518419e+06
6.103390e+01 4.331052e+06
6.188468e+01 4.145424e+06
6.274732e+01 3.970747e+06
6.362198e+01 3.799607e+06
6.450884e+01 3.639346e+06
6.540806e+01 3.481316e+06
6.631981e+01 3.331363e+06
6.724427e+01 3.183228e+06
6.818162e+01 3.046123e+06
6.913204e+01 2.914367e+06
7.009570e+01 2.788582e+06
7.107280e+01 2.666543e+06
7.206351e+01 2.548415e+06
7.306804e+01 2.435051e+06
7.408657e+01 2.325195e+06
7.511929e+01 2.222778e+06
7.616642e+01 2.126150e+06
7.722814e+01 2.031984e+06
7.830465e+01 1.942878e+06
7.939618e+01 1.857629e+06
8.050292e+01 1.774308e+06
8.162509e+01 1.695269e+06
8.276289e+01 1.618120e+06
8.391656e+01 1.544642e+06
8.508632e+01 1.476185e+06
8.627237e+01 1.410584e+06
8.747496e+01 1.347161e+06
8.869432e+01 1.286859e+06
8.993067e+01 1.230079e+06
9.118425e+01 1.174229e+06
9.245531e+01 1.122234e+06
9.374409e+01 1.072077e+06
9.505083e+01 1.024769e+06
9.637579e+01 9.793809e+05
9.771921e+01 9.358925e+05
9.908137e+01 8.947362e+05
1.004625e+02 8.555644e+05
1.018629e+02 8.171714e+05
1.032828e+02 7.810759e+05
1.047225e+02 7.467626e+05
1.061823e+02 7.143327e+05
1.076624e+02 6.826638e+05
1.091632e+02 6.529419e+05
1.106848e+02 6.239713e+05
1.122277e+02 5.965351e+05
1.137921e+02 5.706219e+05
1.153783e+02 5.457907e+05
1.169866e+02 5.221486e+05
1.186174e+02 4.994107e+05
1.202708e+02 4.778126e+05
1.219473e+02 4.567571e+05
1.236472e+02 4.370519e+05
1.253708e+02 4.184197e+05
1.271184e+02 4.005713e+05
1.288904e+02 3.829233e+05
1.306870e+02 3.658997e+05
1.325087e+02 3.502115e+05
1.343558e+02 3.351073e+05
1.362287e+02 3.206266e+05
1.381276e+02 3.066845e+05
1.400531e+02 2.933844e+05
1.420053e+02 2.806611e+05
1.439848e+02 2.684870e+05
1.459919e+02 2.567867e+05
1.480269e+02 2.455201e+05
1.500903e+02 2.348031e+05
1.521825e+02 2.245897e+05
1.543038e+02 2.149594e+05
1.564548e+02 2.055138e+05
1.586357e+02 1.965631e+05
1.608469e+02 1.881966e+05
1.630891e+02 1.799982e+05
1.653624e+02 1.721303e+05
1.676675e+02 1.647711e+05
1.700047e+02 1.576444e+05
1.723745e+02 1.507102e+05
1.747773e+02 1.439992e+05
1.772136e+02 1.375870e+05
1.796838e+02 1.315382e+05
1.821885e+02 1.257740e+05
1.847281e+02 1.203622e+05
1.873032e+02 1.152573e+05
1.899141e+02 1.102403e+05
1.925614e+02 1.054313e+05
1.952456e+02 1.008322e+05
1.979672e+02 9.643365e+04
2.007267e+02 9.222704e+04
2.035248e+02 8.817615e+04
2.063618e+02 8.435740e+04
2.092383e+02 8.075739e+04
2.121550e+02 7.732867e+04
2.151123e+02 7.404156e+04
2.181109e+02 7.089420e+04
2.211512e+02 6.785006e+04
2.242340e+02 6.487835e+04
2.273597e+02 6.203347e+04
2.305289e+02 5.929795e+04
2.337424e+02 5.666970e+04
2.370006e+02 5.420156e+04
2.403043e+02 5.184781e+04
2.436540e+02 4.959629e+04
2.470504e+02 4.744257e+04
2.504942e+02 4.538240e+04
2.539859e+02 4.341824e+04
2.575263e+02 4.154454e+04
2.611161e+02 3.973497e+04
2.647559e+02 3.800422e+04
2.684465e+02 3.634886e+04
2.721885e+02 3.476560e+04
2.759826e+02 3.325130e+04
2.798297e+02 3.180297e+04
2.837304e+02 3.041772e+04
2.876854e+02 2.909281e+04
2.916956e+02 2.782782e+04
2.957617e+02 2.663117e+04
2.998844e+02 2.548599e+04
3.040646e+02 2.439007e+04
3.083031e+02 2.333548e+04
3.126007e+02 2.231342e+04
3.169582e+02 2.134406e+04
3.213764e+02 2.041727e+04
3.258562e+02 1.953074e+04
3.303985e+02 1.868270e+04
3.350041e+02 1.787420e+04
3.396739e+02 1.709551e+04
3.444087e+02 1.635075e+04
3.492096e+02 1.563845e+04
3.540774e+02 1.495717e+04
3.590130e+02 1.429846e+04
3.640175e+02 1.367098e+04
3.690917e+02 1.307434e+04
3.742366e+02 1.250529e+04
3.794533e+02 1.196169e+04
3.847427e+02 1.144657e+04
3.901058e+02 1.095362e+04
3.955436e+02 1.047656e+04
4.010573e+02 1.002022e+04
4.066478e+02 9.583752e+03
4.123163e+02 9.167544e+03
4.180637e+02 8.770752e+03
4.238913e+02 8.391135e+03
4.298001e+02 8.027948e+03
4.357913e+02 7.680481e+03
4.418660e+02 7.348053e+03
4.480254e+02 7.030013e+03
4.542706e+02 6.724141e+03
4.606029e+02 6.430595e+03
4.670234e+02 6.149864e+03
4.735335e+02 5.881390e+03
4.801343e+02 5.624636e+03
4.868271e+02 5.379091e+03
4.936132e+02 5.144265e+03
5.004939e+02 4.919692e+03
5.074705e+02 4.704922e+03
5.145444e+02 4.499529e+03
5.217169e+02 4.303102e+03
5.289893e+02 4.115250e+03
5.363631e+02 3.935599e+03
5.438397e+02 3.763792e+03
5.514206e+02 3.599484e+03
5.591071e+02 3.442350e+03
5.669007e+02 3.292075e+03
5.748030e+02 3.149174e+03
5.828155e+02 3.012808e+03
5.909396e+02 2.882347e+03
5.991770e+02 2.757535e+03
6.075292e+02 2.638128e+03
6.159978e+02 2.523892e+03
6.245845e+02 2.415306e+03
6.332908e+02 2.311588e+03
6.421186e+02 2.212323e+03
6.510694e+02 2.117322e+03
6.601449e+02 2.026401e+03
6.693470e+02 1.939384e+03
6.786773e+02 1.855210e+03
6.881377e+02 1.774354e+03
6.977300e+02 1.697023e+03
7.074559e+02 1.623062e+03
7.173175e+02 1.552324e+03
7.273165e+02 1.484669e+03
7.374549e+02 1.420058e+03
7.477346e+02 1.358336e+03
7.581576e+02 1.299296e+03
7.687260e+02 1.242995e+03
7.794416e+02 1.189171e+03
7.903066e+02 1.137677e+03
8.013230e+02 1.088414e+03
8.124930e+02 1.041284e+03
8.238187e+02 9.961943e+02
8.353023e+02 9.528471e+02
8.469460e+02 9.112598e+02
8.587519e+02 8.714877e+02
8.707225e+02 8.334515e+02
8.828599e+02 7.970754e+02
8.951665e+02 7.624519e+02
9.076446e+02 7.291796e+02
9.202967e+02 6.973592e+02
9.331251e+02 6.669274e+02
9.461324e+02 6.378237e+02
9.593209e+02 6.099900e+02
9.726934e+02 5.834054e+02
9.862522e+02 5.581404e+02
1.000000e+03 5.339695e+02
