# Energy(MeV) Phi16_Sferica Phi84_Sferica
1.000000e+00 6.836721e+09 9.008483e+09
1.013939e+00 6.754845e+09 8.882094e+09
1.028073e+00 6.673891e+09 8.756873e+09
1.042404e+00 6.593839e+09 8.634808e+09
1.056935e+00 6.512373e+09 8.514350e+09
1.071668e+00 6.434510e+09 8.395061e+09
1.086606e+00 6.357913e+09 8.275646e+09
1.101753e+00 6.281328e+09 8.157496e+09
1.117111e+00 6.204951e+09 8.041921e+09
1.132683e+00 6.129445e+09 7.929383e+09
1.148472e+00 6.054799e+09 7.818848e+09
1.164481e+00 5.981005e+09 7.709628e+09
1.180713e+00 5.908051e+09 7.602216e+09
1.197171e+00 5.835929e+09 7.496298e+09
1.213859e+00 5.764629e+09 7.391581e+09
1.230780e+00 5.694531e+09 7.288661e+09
1.247936e+00 5.625544e+09 7.186896e+09
1.265332e+00 5.557333e+09 7.086488e+09
1.282970e+00 5.488991e+09 6.987241e+09
1.300854e+00 5.421290e+09 6.889231e+09
1.318987e+00 5.355433e+09 6.792461e+09
1.337373e+00 5.288437e+09 6.696987e+09
1.356015e+00 5.223959e+09 6.602486e+09
1.374917e+00 5.160404e+09 6.509630e+09
1.394083e+00 5.095528e+09 6.416933e+09
1.413516e+00 5.031295e+09 6.325425e+09
1.433219e+00 4.969734e+09 6.235263e+09
1.453198e+00 4.909211e+09 6.147118e+09
1.473454e+00 4.849365e+09 6.060154e+09
1.493993e+00 4.790186e+09 5.974355e+09
1.514819e+00 4.731669e+09 5.889705e+09
1.535935e+00 4.672146e+09 5.806164e+09
1.557345e+00 4.612623e+09 5.723558e+09
1.579053e+00 4.554066e+09 5.641273e+09
1.601064e+00 4.498194e+09 5.561397e+09
1.623382e+00 4.442263e+09 5.481962e+09
1.646012e+00 4.387371e+09 5.404278e+09
1.668956e+00 4.333827e+09 5.326827e+09
1.692220e+00 4.279720e+09 5.250649e+09
1.715809e+00 4.228050e+09 5.174912e+09
1.739726e+00 4.176937e+09 5.100207e+09
1.763977e+00 4.124644e+09 5.023639e+09
1.788566e+00 4.073301e+09 4.951592e+09
1.813498e+00 4.023017e+09 4.881753e+09
1.838777e+00 3.971945e+09 4.811247e+09
1.864409e+00 3.921630e+09 4.741529e+09
1.890397e+00 3.872766e+09 4.673294e+09
1.916748e+00 3.824447e+09 4.605674e+09
1.943467e+00 3.776668e+09 4.539442e+09
1.970558e+00 3.729335e+09 4.475082e+09
1.998026e+00 3.681115e+09 4.409852e+09
2.025878e+00 3.633558e+09 4.345810e+09
2.054117e+00 3.586556e+09 4.282764e+09
2.082751e+00 3.540550e+09 4.220341e+09
2.111783e+00 3.495783e+09 4.160035e+09
2.141220e+00 3.451682e+09 4.099063e+09
2.171068e+00 3.407258e+09 4.037908e+09
2.201331e+00 3.363305e+09 3.979483e+09
2.232016e+00 3.319630e+09 3.922362e+09
2.263130e+00 3.276949e+09 3.864796e+09
2.294676e+00 3.235990e+09 3.807902e+09
2.326663e+00 3.194152e+09 3.751718e+09
2.359095e+00 3.152188e+09 3.695892e+09
2.391980e+00 3.111492e+09 3.642478e+09
2.425323e+00 3.071599e+09 3.589793e+09
2.459130e+00 3.032215e+09 3.538193e+09
2.493409e+00 2.993878e+09 3.488031e+09
2.528166e+00 2.954832e+09 3.436568e+09
2.563407e+00 2.915885e+09 3.385663e+09
2.599140e+00 2.876902e+09 3.335436e+09
2.635371e+00 2.839664e+09 3.286214e+09
2.672106e+00 2.802417e+09 3.238254e+09
2.709354e+00 2.766633e+09 3.190403e+09
2.747121e+00 2.730599e+09 3.143132e+09
2.785414e+00 2.693688e+09 3.096925e+09
2.824241e+00 2.657557e+09 3.051126e+09
2.863610e+00 2.620487e+09 3.004889e+09
2.903527e+00 2.585610e+09 2.960520e+09
2.944000e+00 2.552040e+09 2.917089e+09
2.985038e+00 2.519421e+09 2.873803e+09
3.026648e+00 2.486181e+09 2.830874e+09
3.068838e+00 2.453004e+09 2.788675e+09
3.111616e+00 2.419701e+09 2.747009e+09
3.154990e+00 2.387941e+09 2.705840e+09
3.198969e+00 2.355339e+09 2.665158e+09
3.243561e+00 2.323301e+09 2.624975e+09
3.288774e+00 2.292199e+09 2.585099e+09
3.334618e+00 2.261569e+09 2.546761e+09
3.381101e+00 2.230229e+09 2.508303e+09
3.428231e+00 2.199330e+09 2.470194e+09
3.476019e+00 2.169826e+09 2.433397e+09
3.524473e+00 2.138797e+09 2.396691e+09
3.573602e+00 2.110523e+09 2.360141e+09
3.623416e+00 2.081379e+09 2.324275e+09
3.673925e+00 2.053069e+09 2.289283e+09
3.725137e+00 2.024396e+09 2.254213e+09
3.777064e+00 1.996547e+09 2.219313e+09
3.829714e+00 1.968619e+09 2.185727e+09
3.883098e+00 1.940965e+09 2.151903e+09
3.937226e+00 1.913958e+09 2.118806e+09
3.992109e+00 1.888035e+09 2.086152e+09
4.047757e+00 1.862178e+09 2.054124e+09
4.104181e+00 1.836310e+09 2.022069e+09
4.161391e+00 1.811457e+09 1.991435e+09
4.219398e+00 1.786918e+09 1.961091e+09
4.278214e+00 1.761696e+09 1.930476e+09
4.337850e+00 1.735650e+09 1.900158e+09
4.398317e+00 1.710237e+09 1.871672e+09
4.459628e+00 1.685004e+09 1.843064e+09
4.521792e+00 1.659996e+09 1.814107e+09
4.584824e+00 1.636177e+09 1.785895e+09
4.648734e+00 1.612801e+09 1.758707e+09
4.713535e+00 1.590268e+09 1.731790e+09
4.779239e+00 1.567405e+09 1.704050e+09
4.845859e+00 1.544505e+09 1.677429e+09
4.913407e+00 1.522100e+09 1.651008e+09
4.981898e+00 1.500711e+09 1.625513e+09
5.051342e+00 1.478614e+09 1.600082e+09
5.121755e+00 1.456781e+09 1.575132e+09
5.193150e+00 1.435086e+09 1.550561e+09
5.265540e+00 1.414259e+09 1.526418e+09
5.338938e+00 1.393388e+09 1.501845e+09
5.413360e+00 1.372502e+09 1.477599e+09
5.488820e+00 1.352275e+09 1.454184e+09
5.565331e+00 1.331552e+09 1.430528e+09
5.642908e+00 1.311319e+09 1.407635e+09
5.721568e+00 1.291267e+09 1.385242e+09
5.801323e+00 1.271673e+09 1.362963e+09
5.882190e+00 1.252614e+09 1.340734e+09
5.964185e+00 1.233664e+09 1.318813e+09
6.047322e+00 1.215292e+09 1.297619e+09
6.131619e+00 1.196216e+09 1.275749e+09
6.217090e+00 1.177599e+09 1.254885e+09
6.303753e+00 1.159209e+09 1.234647e+09
6.391624e+00 1.140812e+09 1.214534e+09
6.480720e+00 1.122845e+09 1.194244e+09
6.571058e+00 1.105183e+09 1.174641e+09
6.662655e+00 1.087811e+09 1.155641e+09
6.755528e+00 1.070936e+09 1.136582e+09
6.849697e+00 1.053700e+09 1.117625e+09
6.945178e+00 1.036996e+09 1.099350e+09
7.041990e+00 1.020670e+09 1.081402e+09
7.140151e+00 1.004413e+09 1.063155e+09
7.239681e+00 9.883249e+08 1.045353e+09
7.340598e+00 9.722994e+08 1.027685e+09
7.442922e+00 9.563912e+08 1.010730e+09
7.546673e+00 9.408552e+08 9.938842e+08
7.651869e+00 9.252906e+08 9.772989e+08
7.758532e+00 9.100648e+08 9.598025e+08
7.866682e+00 8.951500e+08 9.431906e+08
7.976339e+00 8.800568e+08 9.272522e+08
8.087525e+00 8.652385e+08 9.115566e+08
8.200261e+00 8.505474e+08 8.958147e+08
8.314568e+00 8.363083e+08 8.802876e+08
8.430468e+00 8.224737e+08 8.650880e+08
8.547985e+00 8.084831e+08 8.501078e+08
8.667139e+00 7.947589e+08 8.355096e+08
8.787954e+00 7.810134e+08 8.208771e+08
8.910453e+00 7.674666e+08 8.064896e+08
9.034660e+00 7.539715e+08 7.923488e+08
9.160598e+00 7.408894e+08 7.784016e+08
9.288292e+00 7.278848e+08 7.645721e+08
9.417766e+00 7.151032e+08 7.508729e+08
9.549045e+00 7.024994e+08 7.376493e+08
9.682153e+00 6.899810e+08 7.243925e+08
9.817117e+00 6.776693e+08 7.113787e+08
9.953962e+00 6.655224e+08 6.987875e+08
1.009272e+01 6.534405e+08 6.864202e+08
1.023340e+01 6.416166e+08 6.740443e+08
1.037605e+01 6.299842e+08 6.617768e+08
1.052069e+01 6.184549e+08 6.498493e+08
1.066734e+01 6.071322e+08 6.381774e+08
1.081604e+01 5.958514e+08 6.264923e+08
1.096681e+01 5.848158e+08 6.147867e+08
1.111968e+01 5.740434e+08 6.034013e+08
1.127468e+01 5.631549e+08 5.922963e+08
1.143184e+01 5.525329e+08 5.813063e+08
1.159120e+01 5.419637e+08 5.704238e+08
1.175277e+01 5.318127e+08 5.595936e+08
1.191660e+01 5.218428e+08 5.487799e+08
1.208271e+01 5.117774e+08 5.382847e+08
1.225114e+01 5.018126e+08 5.278750e+08
1.242191e+01 4.920665e+08 5.178190e+08
1.259506e+01 4.824718e+08 5.077672e+08
1.277063e+01 4.730278e+08 4.978318e+08
1.294865e+01 4.636686e+08 4.880096e+08
1.312915e+01 4.544926e+08 4.783888e+08
1.331216e+01 4.454430e+08 4.690161e+08
1.349772e+01 4.366252e+08 4.598398e+08
1.368587e+01 4.277598e+08 4.506738e+08
1.387665e+01 4.191091e+08 4.414444e+08
1.407008e+01 4.107684e+08 4.327076e+08
1.426621e+01 4.022953e+08 4.239863e+08
1.446507e+01 3.940611e+08 4.153733e+08
1.466671e+01 3.859238e+08 4.067756e+08
1.487115e+01 3.778794e+08 3.985013e+08
1.507845e+01 3.700746e+08 3.902237e+08
1.528864e+01 3.622657e+08 3.820316e+08
1.550175e+01 3.547062e+08 3.741064e+08
1.571784e+01 3.471857e+08 3.663231e+08
1.593694e+01 3.398392e+08 3.585212e+08
1.615909e+01 3.324867e+08 3.509178e+08
1.638434e+01 3.252732e+08 3.433985e+08
1.661273e+01 3.182244e+08 3.360417e+08
1.684430e+01 3.113701e+08 3.287547e+08
1.707910e+01 3.046772e+08 3.215417e+08
1.731717e+01 2.980685e+08 3.144479e+08
1.755856e+01 2.915240e+08 3.074823e+08
1.780332e+01 2.849372e+08 3.006655e+08
1.805149e+01 2.785098e+08 2.939531e+08
1.830312e+01 2.722209e+08 2.873554e+08
1.855825e+01 2.660509e+08 2.808530e+08
1.881694e+01 2.599526e+08 2.744671e+08
1.907924e+01 2.540327e+08 2.681617e+08
1.934520e+01 2.481843e+08 2.619939e+08
1.961486e+01 2.424270e+08 2.558843e+08
1.988828e+01 2.367393e+08 2.499072e+08
2.016551e+01 2.311519e+08 2.439672e+08
2.044661e+01 2.256513e+08 2.381880e+08
2.073162e+01 2.202532e+08 2.325779e+08
2.102061e+01 2.149241e+08 2.269608e+08
2.131362e+01 2.097432e+08 2.215243e+08
2.161073e+01 2.046384e+08 2.161218e+08
2.191197e+01 1.996281e+08 2.108309e+08
2.221741e+01 1.946969e+08 2.056428e+08
2.252711e+01 1.898387e+08 2.006245e+08
2.284112e+01 1.850826e+08 1.956462e+08
2.315951e+01 1.803716e+08 1.907120e+08
2.348235e+01 1.758539e+08 1.858547e+08
2.380968e+01 1.714152e+08 1.811713e+08
2.414157e+01 1.669926e+08 1.765156e+08
2.447809e+01 1.625852e+08 1.719688e+08
2.481930e+01 1.583517e+08 1.675220e+08
2.516527e+01 1.541437e+08 1.631153e+08
2.551606e+01 1.500301e+08 1.588230e+08
2.587174e+01 1.460572e+08 1.545687e+08
2.623238e+01 1.420797e+08 1.504422e+08
2.659804e+01 1.381787e+08 1.464295e+08
2.696881e+01 1.344115e+08 1.424905e+08
2.734474e+01 1.307545e+08 1.386487e+08
2.772591e+01 1.271147e+08 1.348115e+08
2.811239e+01 1.234883e+08 1.311024e+08
2.850426e+01 1.199547e+08 1.274054e+08
2.890160e+01 1.164003e+08 1.238476e+08
2.930447e+01 1.130892e+08 1.203964e+08
2.971296e+01 1.098633e+08 1.169625e+08
3.012714e+01 1.066635e+08 1.135730e+08
3.054710e+01 1.034935e+08 1.102563e+08
3.097291e+01 1.003906e+08 1.070143e+08
3.140465e+01 9.739507e+07 1.038717e+08
3.184242e+01 9.449727e+07 1.008272e+08
3.228628e+01 9.168844e+07 9.777057e+07
3.273634e+01 8.887719e+07 9.480552e+07
3.319266e+01 8.608748e+07 9.191025e+07
3.365535e+01 8.340670e+07 8.910946e+07
3.412449e+01 8.077410e+07 8.635946e+07
3.460016e+01 7.820818e+07 8.369231e+07
3.508247e+01 7.566632e+07 8.108352e+07
3.557150e+01 7.323087e+07 7.855476e+07
3.606735e+01 7.088986e+07 7.607826e+07
3.657011e+01 6.856435e+07 7.366909e+07
3.707988e+01 6.628347e+07 7.131926e+07
3.759675e+01 6.407304e+07 6.901332e+07
3.812083e+01 6.192918e+07 6.677613e+07
3.865221e+01 5.987294e+07 6.459114e+07
3.919100e+01 5.784469e+07 6.245633e+07
3.973730e+01 5.581010e+07 6.036105e+07
4.029122e+01 5.383367e+07 5.833328e+07
4.085286e+01 5.200149e+07 5.635955e+07
4.142232e+01 5.017980e+07 5.444486e+07
4.199973e+01 4.833333e+07 5.257194e+07
4.258518e+01 4.658656e+07 5.071223e+07
4.317880e+01 4.484953e+07 4.895423e+07
4.378069e+01 4.318306e+07 4.723026e+07
4.439097e+01 4.156512e+07 4.554887e+07
4.500975e+01 4.002362e+07 4.394166e+07
4.563716e+01 3.851132e+07 4.234950e+07
4.627332e+01 3.710224e+07 4.080392e+07
4.691835e+01 3.566115e+07 3.931523e+07
4.757236e+01 3.427384e+07 3.786558e+07
4.823549e+01 3.293327e+07 3.644600e+07
4.890787e+01 3.168066e+07 3.510201e+07
4.958962e+01 3.047981e+07 3.376138e+07
5.028087e+01 2.924777e+07 3.247182e+07
5.098176e+01 2.808277e+07 3.120703e+07
5.169242e+01 2.698167e+07 2.999228e+07
5.241298e+01 2.591001e+07 2.882132e+07
5.314359e+01 2.489312e+07 2.768753e+07
5.388438e+01 2.387077e+07 2.657568e+07
5.463550e+01 2.288391e+07 2.552264e+07
5.539709e+01 2.192333e+07 2.449087e+07
5.616930e+01 2.102366e+07 2.349097e+07
5.695227e+01 2.017043e+07 2.252784e+07
5.774615e+01 1.932747e+07 2.162156e+07
5.855110e+01 1.850581e+07 2.073095e+07
5.936727e+01 1.773407e+07 1.989696e+07
6.019482e+01 1.700372e+07 1.906420e+07
6.103390e+01 1.628200e+07 1.824771e+07
6.188468e+01 1.560154e+07 1.746940e+07
6.274732e+01 1.493296e+07 1.674698e+07
6.362198e+01 1.429533e+07 1.604453e+07
6.450884e+01 1.368094e+07 1.535968e+07
6.540806e+01 1.308954e+07 1.470386e+07
6.631981e+01 1.251554e+07 1.408628e+07
6.724427e+01 1.195648e+07 1.349712e+07
6.818162e+01 1.142657e+07 1.290480e+07
6.913204e+01 1.090717e+07 1.239247e+07
7.009570e+01 1.042983e+07 1.186919e+07
7.107280e+01 9.960320e+06 1.135729e+07
7.206351e+01 9.530597e+06 1.088028e+07
7.306804e+01 9.105888e+06 1.041616e+07
7.408657e+01 8.704718e+06 9.971726e+06
7.511929e+01 8.301701e+06 9.536899e+06
7.616642e+01 7.918556e+06 9.139981e+06
7.722814e+01 7.566354e+06 8.758157e+06
7.830465e+01 7.226344e+06 8.388984e+06
7.939618e+01 6.904626e+06 8.050296e+06
8.050292e+01 6.596574e+06 7.731364e+06
8.162509e+01 6.297397e+06 7.423386e+06
8.276289e+01 6.010163e+06 7.131202e+06
8.391656e+01 5.732801e+06 6.848032e+06
8.508632e+01 5.477470e+06 6.576856e+06
8.627237e+01 5.222191e+06 6.316451e+06
8.747496e+01 4.970999e+06 6.067358e+06
8.869432e+01 4.740907e+06 5.834042e+06
8.993067e+01 4.513150e+06 5.607152e+06
9.118425e+01 4.301571e+06 5.388472e+06
9.245531e+01 4.100159e+06 5.182668e+06
9.374409e+01 3.901091e+06 4.979715e+06
9.505083e+01 3.719878e+06 4.783823e+06
9.637579e+01 3.544327e+06 4.590628e+06
9.771921e+01 3.377926e+06 4.404641e+06
9.908137e+01 3.213898e+06 4.229075e+06
1.004625e+02 3.062638e+06 4.063055e+06
1.018629e+02 2.919052e+06 3.902339e+06
1.032828e+02 2.779855e+06 3.747025e+06
1.047225e+02 2.649246e+06 3.597893e+06
1.061823e+02 2.521832e+06 3.458515e+06
1.076624e+02 2.402958e+06 3.325017e+06
1.091632e+02 2.290491e+06 3.196596e+06
1.106848e+02 2.179921e+06 3.072154e+06
1.122277e+02 2.073676e+06 2.949683e+06
1.137921e+02 1.972681e+06 2.834524e+06
1.153783e+02 1.877855e+06 2.722453e+06
1.169866e+02 1.788753e+06 2.614749e+06
1.186174e+02 1.703681e+06 2.511858e+06
1.202708e+02 1.622582e+06 2.412347e+06
1.219473e+02 1.544338e+06 2.317250e+06
1.236472e+02 1.469443e+06 2.228183e+06
1.253708e+02 1.399018e+06 2.144538e+06
1.271184e+02 1.332577e+06 2.062157e+06
1.288904e+02 1.269028e+06 1.981125e+06
1.306870e+02 1.208509e+06 1.903577e+06
1.325087e+02 1.150239e+06 1.829064e+06
1.343558e+02 1.094830e+06 1.757647e+06
1.362287e+02 1.042890e+06 1.689652e+06
1.381276e+02 9.938853e+05 1.624029e+06
1.400531e+02 9.470300e+05 1.560174e+06
1.420053e+02 9.015264e+05 1.498567e+06
1.439848e+02 8.581014e+05 1.439520e+06
1.459919e+02 8.157096e+05 1.383053e+06
1.480269e+02 7.757570e+05 1.328916e+06
1.500903e+02 7.385930e+05 1.276898e+06
1.521825e+02 7.026736e+05 1.226915e+06
1.543038e+02 6.682619e+05 1.178964e+06
1.564548e+02 6.357481e+05 1.132744e+06
1.586357e+02 6.055723e+05 1.088404e+06
1.608469e+02 5.765757e+05 1.046349e+06
1.630891e+02 5.489334e+05 1.005927e+06
1.653624e+02 5.226326e+05 9.665127e+05
1.676675e+02 4.976789e+05 9.286428e+05
1.700047e+02 4.736634e+05 8.922567e+05
1.723745e+02 4.508897e+05 8.572964e+05
1.747773e+02 4.294310e+05 8.243646e+05
1.772136e+02 4.092964e+05 7.933472e+05
1.796838e+02 3.901738e+05 7.634970e+05
1.821885e+02 3.712947e+05 7.343756e+05
1.847281e+02 3.538206e+05 7.061344e+05
1.873032e+02 3.370742e+05 6.788609e+05
1.899141e+02 3.208698e+05 6.529535e+05
1.925614e+02 3.054345e+05 6.280207e+05
1.952456e+02 2.906878e+05 6.035758e+05
1.979672e+02 2.767030e+05 5.799021e+05
2.007267e+02 2.634946e+05 5.575042e+05
2.035248e+02 2.506605e+05 5.359714e+05
2.063618e+02 2.387869e+05 5.152535e+05
2.092383e+02 2.275070e+05 4.952719e+05
2.121550e+02 2.169335e+05 4.760481e+05
2.151123e+02 2.065655e+05 4.574498e+05
2.181109e+02 1.965995e+05 4.392728e+05
2.211512e+02 1.870786e+05 4.219079e+05
2.242340e+02 1.779056e+05 4.053218e+05
2.273597e+02 1.691801e+05 3.893878e+05
2.305289e+02 1.610149e+05 3.740801e+05
2.337424e+02 1.533207e+05 3.593743e+05
2.370006e+02 1.459942e+05 3.452466e+05
2.403043e+02 1.390178e+05 3.316743e+05
2.436540e+02 1.323748e+05 3.187319e+05
2.470504e+02 1.260492e+05 3.064114e+05
2.504942e+02 1.200351e+05 2.945672e+05
2.539859e+02 1.143144e+05 2.831809e+05
2.575263e+02 1.088663e+05 2.722346e+05
2.611161e+02 1.036778e+05 2.617115e+05
2.647559e+02 9.873665e+04 2.515952e+05
2.684465e+02 9.403097e+04 2.418699e+05
2.721885e+02 8.954238e+04 2.325082e+05
2.759826e+02 8.526442e+04 2.235027e+05
2.798297e+02 8.121179e+04 2.148460e+05
2.837304e+02 7.738933e+04 2.065246e+05
2.876854e+02 7.374680e+04 1.985256e+05
2.916956e+02 7.022801e+04 1.908364e+05
2.957617e+02 6.686852e+04 1.834449e+05
2.998844e+02 6.366974e+04 1.763398e+05
3.040646e+02 6.062398e+04 1.694692e+05
3.083031e+02 5.768897e+04 1.629437e+05
3.126007e+02 5.490737e+04 1.566694e+05
3.169582e+02 5.226745e+04 1.506321e+05
3.213764e+02 4.973792e+04 1.448170e+05
3.258562e+02 4.733689e+04 1.392265e+05
3.303985e+02 4.505923e+04 1.338518e+05
3.350041e+02 4.289117e+04 1.286845e+05
3.396739e+02 4.083351e+04 1.237168e+05
3.444087e+02 3.889643e+04 1.189408e+05
3.492096e+02 3.702068e+04 1.143389e+05
3.540774e+02 3.523298e+04 1.098961e+05
3.590130e+02 3.353161e+04 1.055873e+05
3.640175e+02 3.191239e+04 1.014474e+05
3.690917e+02 3.037137e+04 9.746978e+04
3.742366e+02 2.890476e+04 9.364816e+04
3.794533e+02 2.750897e+04 8.997639e+04
3.847427e+02 2.618059e+04 8.644859e+04
3.901058e+02 2.492098e+04 8.305911e+04
3.955436e+02 2.374816e+04 7.980254e+04
4.010573e+02 2.262995e+04 7.667365e+04
4.066478e+02 2.153716e+04 7.366745e+04
4.123163e+02 2.049714e+04 7.077730e+04
4.180637e+02 1.950735e+04 6.800036e+04
4.238913e+02 1.856535e+04 6.533238e+04
4.298001e+02 1.766884e+04 6.276908e+04
4.357913e+02 1.681562e+04 6.030635e+04
4.418660e+02 1.600360e+04 5.794024e+04
4.480254e+02 1.523080e+04 5.566697e+04
4.542706e+02 1.449531e+04 5.348290e+04
4.606029e+02 1.379534e+04 5.138452e+04
4.670234e+02 1.312917e+04 4.936611e+04
4.735335e+02 1.249938e+04 4.742430e+04
4.801343e+02 1.191070e+04 4.555887e+04
4.868271e+02 1.135719e+04 4.376682e+04
4.936132e+02 1.080939e+04 4.204526e+04
5.004939e+02 1.028676e+04 4.039141e+04
5.074705e+02 9.789405e+03 3.880262e+04
5.145444e+02 9.316094e+03 3.727633e+04
5.217169e+02 8.865666e+03 3.581007e+04
5.289893e+02 8.437017e+03 3.440149e+04
5.363631e+02 8.029092e+03 3.304831e+04
5.438397e+02 7.640890e+03 3.174836e+04
5.514206e+02 7.271458e+03 3.052380e+04
5.591071e+02 6.919888e+03 2.936434e+04
5.669007e+02 6.585315e+03 2.824894e+04
5.748030e+02 6.266919e+03 2.717592e+04
5.828155e+02 5.963918e+03 2.614366e+04
5.909396e+02 5.675566e+03 2.515063e+04
5.991770e+02 5.399560e+03 2.419077e+04
6.075292e+02 5.137551e+03 2.324386e+04
6.159978e+02 4.888739e+03 2.233403e+04
6.245845e+02 4.655432e+03 2.145982e+04
6.332908e+02 4.430851e+03 2.061983e+04
6.421186e+02 4.217070e+03 1.981097e+04
6.510694e+02 4.014947e+03 1.903081e+04
6.601449e+02 3.823218e+03 1.828137e+04
6.693470e+02 3.641167e+03 1.756145e+04
6.786773e+02 3.466758e+03 1.686988e+04
6.881377e+02 3.301255e+03 1.620554e+04
6.977300e+02 3.142842e+03 1.556736e+04
7.074559e+02 2.990783e+03 1.495432e+04
7.173175e+02 2.846187e+03 1.436542e+04
7.273165e+02 2.710105e+03 1.379970e+04
7.374549e+02 2.580529e+03 1.325627e+04
7.477346e+02 2.457345e+03 1.273424e+04
7.581576e+02 2.340051e+03 1.223276e+04
7.687260e+02 2.228355e+03 1.175104e+04
7.794416e+02 2.121992e+03 1.128828e+04
7.903066e+02 2.020705e+03 1.084375e+04
8.013230e+02 1.924285e+03 1.041672e+04
8.124930e+02 1.832533e+03 1.000651e+04
8.238187e+02 1.745156e+03 9.612452e+03
8.353023e+02 1.661945e+03 9.233913e+03
8.469460e+02 1.582702e+03 8.870282e+03
8.587519e+02 1.507238e+03 8.520970e+03
8.707225e+02 1.435371e+03 8.185414e+03
8.828599e+02 1.366417e+03 7.863072e+03
8.951665e+02 1.300633e+03 7.557507e+03
9.076446e+02 1.238016e+03 7.264563e+03
9.202967e+02 1.178414e+03 6.982973e+03
9.331251e+02 1.121682e+03 6.712299e+03
9.461324e+02 1.067680e+03 6.452117e+03
9.593209e+02 1.016465e+03 6.202020e+03
9.726934e+02 9.679105e+02 5.961618e+03
9.862522e+02 9.216758e+02 5.730535e+03
1.000000e+03 8.776497e+02 5.508409e+03
