# Energy(MeV) Fluence(p/cm2 MeV)
5.000000e-02 2.102370e+11
5.168383e-02 2.026500e+11
5.342437e-02 1.946558e+11
5.522353e-02 1.875490e+11
5.708327e-02 1.807968e+11
5.900565e-02 1.739938e+11
6.099276e-02 1.675407e+11
6.304680e-02 1.615379e+11
6.517000e-02 1.554965e+11
6.736471e-02 1.495148e+11
6.963333e-02 1.437587e+11
7.197835e-02 1.384121e+11
7.440234e-02 1.332707e+11
7.690796e-02 1.281626e+11
7.949797e-02 1.233716e+11
8.217519e-02 1.185195e+11
8.494258e-02 1.141331e+11
8.780317e-02 1.099315e+11
9.076008e-02 1.058092e+11
9.381658e-02 1.018767e+11
9.697601e-02 9.816458e+10
1.002418e-01 9.440662e+10
1.036177e-01 9.075006e+10
1.071072e-01 8.720040e+10
1.107142e-01 8.395841e+10
1.144426e-01 8.085557e+10
1.182967e-01 7.764968e+10
1.222805e-01 7.474211e+10
1.263985e-01 7.190977e+10
1.306552e-01 6.912260e+10
1.350553e-01 6.639565e+10
1.396035e-01 6.389280e+10
1.443048e-01 6.140603e+10
1.491646e-01 5.898159e+10
1.541879e-01 5.678138e+10
1.593805e-01 5.460053e+10
1.647479e-01 5.255523e+10
1.702960e-01 5.047731e+10
1.760310e-01 4.848717e+10
1.819592e-01 4.668175e+10
1.880869e-01 4.479786e+10
1.944211e-01 4.293946e+10
2.009685e-01 4.125646e+10
2.077365e-01 3.960379e+10
2.147324e-01 3.803246e+10
2.219638e-01 3.653809e+10
2.294388e-01 3.503183e+10
2.371656e-01 3.357222e+10
2.451525e-01 3.216676e+10
2.534084e-01 3.081924e+10
2.619424e-01 2.950711e+10
2.707637e-01 2.825759e+10
2.798822e-01 2.706014e+10
2.893077e-01 2.590060e+10
2.990506e-01 2.474745e+10
3.091216e-01 2.367635e+10
3.195318e-01 2.266822e+10
3.302926e-01 2.169138e+10
3.414157e-01 2.074441e+10
3.529135e-01 1.979200e+10
3.647984e-01 1.890076e+10
3.770836e-01 1.803486e+10
3.897825e-01 1.722202e+10
4.029091e-01 1.643441e+10
4.164778e-01 1.568603e+10
4.305033e-01 1.495216e+10
4.450013e-01 1.425110e+10
4.599874e-01 1.357617e+10
4.754783e-01 1.290943e+10
4.914908e-01 1.227919e+10
5.080426e-01 1.166449e+10
5.251518e-01 1.107686e+10
5.428371e-01 1.052264e+10
5.611181e-01 9.980615e+09
5.800147e-01 9.460355e+09
5.995476e-01 8.963278e+09
6.197384e-01 8.486827e+09
6.406091e-01 8.023726e+09
6.621827e-01 7.580296e+09
6.844828e-01 7.162698e+09
7.075339e-01 6.765121e+09
7.313613e-01 6.375412e+09
7.559911e-01 6.017126e+09
7.814504e-01 5.671064e+09
8.077670e-01 5.338778e+09
8.349699e-01 5.016618e+09
8.630889e-01 4.711736e+09
8.921549e-01 4.432392e+09
9.221997e-01 4.160039e+09
9.532563e-01 3.892926e+09
9.853588e-01 3.645155e+09
1.018542e+00 3.406459e+09
1.052844e+00 3.183306e+09
1.088300e+00 2.977361e+09
1.124950e+00 2.772535e+09
1.162835e+00 2.585349e+09
1.201995e+00 2.402979e+09
1.242474e+00 2.229693e+09
1.284317e+00 2.068975e+09
1.327568e+00 1.920789e+09
1.372276e+00 1.776578e+09
1.418490e+00 1.643515e+09
1.466260e+00 1.519552e+09
1.515639e+00 1.399990e+09
1.566680e+00 1.292882e+09
1.619441e+00 1.192515e+09
1.673978e+00 1.096534e+09
1.730352e+00 1.009787e+09
1.788625e+00 9.285241e+08
1.848860e+00 8.538223e+08
1.911123e+00 7.854845e+08
1.975484e+00 7.210987e+08
2.042011e+00 6.612806e+08
2.110780e+00 6.062609e+08
2.181864e+00 5.563600e+08
2.255341e+00 5.102713e+08
2.331294e+00 4.676984e+08
2.409804e+00 4.293699e+08
2.490958e+00 3.931836e+08
2.574845e+00 3.595343e+08
2.661558e+00 3.291193e+08
2.751190e+00 3.016323e+08
2.843841e+00 2.760462e+08
2.939612e+00 2.527994e+08
3.038609e+00 2.314563e+08
3.140939e+00 2.117684e+08
3.246715e+00 1.940136e+08
3.356054e+00 1.776694e+08
3.469074e+00 1.625297e+08
3.585901e+00 1.487016e+08
3.706663e+00 1.360830e+08
3.831491e+00 1.245071e+08
3.960522e+00 1.141777e+08
4.093900e+00 1.045030e+08
4.231769e+00 9.558667e+07
4.374280e+00 8.746692e+07
4.521592e+00 8.011573e+07
4.673864e+00 7.329849e+07
4.831264e+00 6.713573e+07
4.993965e+00 6.140314e+07
5.162145e+00 5.615027e+07
5.335989e+00 5.143055e+07
5.515687e+00 4.708333e+07
5.701437e+00 4.312468e+07
5.893443e+00 3.939635e+07
6.091914e+00 3.608864e+07
6.297070e+00 3.298223e+07
6.509134e+00 3.021353e+07
6.728340e+00 2.767545e+07
6.954928e+00 2.531765e+07
7.189147e+00 2.314874e+07
7.431253e+00 2.120772e+07
7.681513e+00 1.941636e+07
7.940201e+00 1.777737e+07
8.207601e+00 1.624720e+07
8.484005e+00 1.486164e+07
8.769719e+00 1.359071e+07
9.065053e+00 1.244691e+07
9.370334e+00 1.140383e+07
9.685896e+00 1.043034e+07
1.001208e+01 9.529346e+06
1.034926e+01 8.720747e+06
1.069779e+01 7.970368e+06
1.105805e+01 7.285302e+06
1.143045e+01 6.662978e+06
1.181539e+01 6.090073e+06
1.221329e+01 5.574559e+06
1.262460e+01 5.100276e+06
1.304975e+01 4.659545e+06
1.348922e+01 4.257940e+06
1.394350e+01 3.892135e+06
1.441307e+01 3.560371e+06
1.489845e+01 3.253844e+06
1.540018e+01 2.974949e+06
1.591881e+01 2.720634e+06
1.645490e+01 2.486714e+06
1.700905e+01 2.272305e+06
1.758185e+01 2.076869e+06
1.817395e+01 1.898409e+06
1.878599e+01 1.734745e+06
1.941864e+01 1.585588e+06
2.007260e+01 1.449017e+06
2.074857e+01 1.326137e+06
2.144732e+01 1.211464e+06
2.216959e+01 1.106915e+06
2.291619e+01 1.011137e+06
2.368793e+01 9.227019e+05
2.448566e+01 8.433077e+05
2.531026e+01 7.699160e+05
2.616262e+01 7.031575e+05
2.704369e+01 6.414883e+05
2.795443e+01 5.856001e+05
2.889585e+01 5.344544e+05
2.986896e+01 4.868775e+05
3.087485e+01 4.448846e+05
3.191461e+01 4.067784e+05
3.298939e+01 3.715860e+05
3.410036e+01 3.393615e+05
3.524875e+01 3.092709e+05
3.643581e+01 2.827037e+05
3.766285e+01 2.583681e+05
3.893121e+01 2.357555e+05
4.024228e+01 2.150695e+05
4.159751e+01 1.961504e+05
4.299837e+01 1.789386e+05
4.444641e+01 1.633239e+05
4.594322e+01 1.489222e+05
4.749044e+01 1.359439e+05
4.908976e+01 1.240757e+05
5.074294e+01 1.133231e+05
5.245179e+01 1.033705e+05
5.421819e+01 9.430165e+04
5.604408e+01 8.604361e+04
5.793146e+01 7.842631e+04
5.988240e+01 7.149257e+04
6.189904e+01 6.518449e+04
6.398359e+01 5.947244e+04
6.613834e+01 5.425537e+04
6.836566e+01 4.948568e+04
7.066799e+01 4.512210e+04
7.304785e+01 4.117133e+04
7.550786e+01 3.750191e+04
7.805072e+01 3.416879e+04
8.067920e+01 3.114505e+04
8.339621e+01 2.838068e+04
8.620472e+01 2.589301e+04
8.910781e+01 2.360063e+04
9.210866e+01 2.151933e+04
9.521057e+01 1.957686e+04
9.841695e+01 1.784106e+04
1.017313e+02 1.626244e+04
1.051573e+02 1.482072e+04
1.086986e+02 1.348255e+04
1.123592e+02 1.226191e+04
1.161431e+02 1.115004e+04
1.200544e+02 1.013907e+04
1.240975e+02 9.225536e+03
1.282767e+02 8.380035e+03
1.325966e+02 7.616640e+03
1.370620e+02 6.917533e+03
1.416778e+02 6.296182e+03
1.464490e+02 5.726071e+03
1.513809e+02 5.204394e+03
1.564789e+02 4.730114e+03
1.617486e+02 4.286042e+03
1.671958e+02 3.902165e+03
1.728264e+02 3.542977e+03
1.786466e+02 3.216256e+03
1.846628e+02 2.921397e+03
1.908817e+02 2.652788e+03
1.973099e+02 2.410940e+03
2.039547e+02 2.188472e+03
2.108232e+02 1.983282e+03
2.179230e+02 1.798845e+03
2.252619e+02 1.631665e+03
2.328480e+02 1.477290e+03
2.406895e+02 1.339210e+03
2.487952e+02 1.213206e+03
2.571738e+02 1.101261e+03
2.658345e+02 9.969163e+02
2.747869e+02 9.027346e+02
2.840408e+02 8.171395e+02
2.936064e+02 7.401129e+02
3.034941e+02 6.690545e+02
3.137148e+02 6.033245e+02
3.242796e+02 5.479343e+02
3.352003e+02 4.954615e+02
3.464887e+02 4.466414e+02
3.581573e+02 4.041080e+02
3.702189e+02 3.648268e+02
3.826866e+02 3.288696e+02
3.955742e+02 2.962849e+02
4.088958e+02 2.675653e+02
4.226661e+02 2.417794e+02
4.369001e+02 2.181012e+02
4.516134e+02 1.966267e+02
4.668222e+02 1.764356e+02
4.825433e+02 1.588889e+02
4.987937e+02 1.424070e+02
5.155914e+02 1.282697e+02
5.329548e+02 1.152673e+02
5.509030e+02 1.035646e+02
5.694556e+02 9.290532e+01
5.886329e+02 8.336198e+01
6.084561e+02 7.474982e+01
6.289469e+02 6.680816e+01
6.501277e+02 5.955330e+01
6.720219e+02 5.324486e+01
6.946533e+02 4.754702e+01
7.180470e+02 4.227388e+01
7.422284e+02 3.772072e+01
7.672242e+02 3.375694e+01
7.930617e+02 2.990589e+01
8.197694e+02 2.656831e+01
8.473765e+02 2.362889e+01
8.759133e+02 2.096452e+01
9.054112e+02 1.853169e+01
9.359024e+02 1.643864e+01
9.674205e+02 1.459115e+01
1.000000e+03 1.283511e+01
