Energy(MeV)   SpectralFluence(cm^-2 MeV^-1)
5.000000e-02 4.465169e+09
5.168383e-02 4.328992e+09
5.342437e-02 4.196947e+09
5.522353e-02 4.068908e+09
5.708327e-02 3.944753e+09
5.900565e-02 3.824364e+09
6.099276e-02 3.707628e+09
6.304680e-02 3.594433e+09
6.517000e-02 3.484671e+09
6.736471e-02 3.378240e+09
6.963333e-02 3.275037e+09
7.197835e-02 3.174964e+09
7.440234e-02 3.077928e+09
7.690796e-02 2.983834e+09
7.949797e-02 2.892595e+09
8.217519e-02 2.804124e+09
8.494258e-02 2.718336e+09
8.780317e-02 2.635150e+09
9.076008e-02 2.554487e+09
9.381658e-02 2.476271e+09
9.697601e-02 2.400427e+09
1.002418e-01 2.326884e+09
1.036177e-01 2.255571e+09
1.071072e-01 2.186420e+09
1.107142e-01 2.119368e+09
1.144426e-01 2.054348e+09
1.182967e-01 1.991301e+09
1.222805e-01 1.930165e+09
1.263985e-01 1.870884e+09
1.306552e-01 1.813400e+09
1.350553e-01 1.757659e+09
1.396035e-01 1.703609e+09
1.443048e-01 1.651198e+09
1.491646e-01 1.600376e+09
1.541879e-01 1.551095e+09
1.593805e-01 1.503308e+09
1.647479e-01 1.456971e+09
1.702960e-01 1.412038e+09
1.760310e-01 1.368468e+09
1.819592e-01 1.326218e+09
1.880869e-01 1.285250e+09
1.944211e-01 1.245524e+09
2.009685e-01 1.207002e+09
2.077365e-01 1.169647e+09
2.147324e-01 1.133426e+09
2.219638e-01 1.098302e+09
2.294388e-01 1.064243e+09
2.371656e-01 1.031217e+09
2.451525e-01 9.991917e+08
2.534084e-01 9.681372e+08
2.619424e-01 9.380241e+08
2.707637e-01 9.088237e+08
2.798822e-01 8.805084e+08
2.893077e-01 8.530514e+08
2.990506e-01 8.264266e+08
3.091216e-01 8.006088e+08
3.195318e-01 7.755735e+08
3.302926e-01 7.512970e+08
3.414157e-01 7.277562e+08
3.529135e-01 7.049290e+08
3.647984e-01 6.827936e+08
3.770836e-01 6.613291e+08
3.897825e-01 6.405152e+08
4.029091e-01 6.203321e+08
4.164778e-01 6.007607e+08
4.305033e-01 5.817824e+08
4.450013e-01 5.633794e+08
4.599874e-01 5.455342e+08
4.754783e-01 5.282299e+08
4.914908e-01 5.114500e+08
5.080426e-01 4.951788e+08
5.251518e-01 4.794009e+08
5.428371e-01 4.641012e+08
5.611181e-01 4.492654e+08
5.800147e-01 4.348793e+08
5.995476e-01 4.209295e+08
6.197384e-01 4.074026e+08
6.406091e-01 3.942859e+08
6.621827e-01 3.815670e+08
6.844828e-01 3.692339e+08
7.075339e-01 3.572749e+08
7.313613e-01 3.456787e+08
7.559911e-01 3.344343e+08
7.814504e-01 3.235313e+08
8.077670e-01 3.129591e+08
8.349699e-01 3.027079e+08
8.630889e-01 2.927680e+08
8.921549e-01 2.831299e+08
9.221997e-01 2.737847e+08
9.532563e-01 2.647234e+08
9.853588e-01 2.559376e+08
1.018542e+00 2.474189e+08
1.052844e+00 2.391593e+08
1.088300e+00 2.311511e+08
1.124950e+00 2.233866e+08
1.162835e+00 2.158586e+08
1.201995e+00 2.085600e+08
1.242474e+00 2.014839e+08
1.284317e+00 1.946236e+08
1.327568e+00 1.879727e+08
1.372276e+00 1.815249e+08
1.418490e+00 1.752742e+08
1.466260e+00 1.692146e+08
1.515639e+00 1.633405e+08
1.566680e+00 1.576464e+08
1.619441e+00 1.521269e+08
1.673978e+00 1.467767e+08
1.730352e+00 1.415910e+08
1.788625e+00 1.365648e+08
1.848860e+00 1.316934e+08
1.911123e+00 1.269723e+08
1.975484e+00 1.223969e+08
2.042011e+00 1.179630e+08
2.110780e+00 1.136665e+08
2.181864e+00 1.095033e+08
2.255341e+00 1.054695e+08
2.331294e+00 1.015613e+08
2.409804e+00 9.777510e+07
2.490958e+00 9.410730e+07
2.574845e+00 9.055447e+07
2.661558e+00 8.711327e+07
2.751190e+00 8.378049e+07
2.843841e+00 8.055299e+07
2.939612e+00 7.742775e+07
3.038609e+00 7.440182e+07
3.140939e+00 7.147237e+07
3.246715e+00 6.863665e+07
3.356054e+00 6.589198e+07
3.469074e+00 6.323579e+07
3.585901e+00 6.066557e+07
3.706663e+00 5.817889e+07
3.831491e+00 5.577341e+07
3.960522e+00 5.344686e+07
4.093900e+00 5.119702e+07
4.231769e+00 4.902176e+07
4.374280e+00 4.691902e+07
4.521592e+00 4.488677e+07
4.673864e+00 4.292310e+07
4.831264e+00 4.102609e+07
4.993965e+00 3.919394e+07
5.162145e+00 3.742486e+07
5.335989e+00 3.571714e+07
5.515687e+00 3.406912e+07
5.701437e+00 3.247917e+07
5.893443e+00 3.094573e+07
6.091914e+00 2.946726e+07
6.297070e+00 2.804231e+07
6.509134e+00 2.666941e+07
6.728340e+00 2.534718e+07
6.954928e+00 2.407426e+07
7.189147e+00 2.284933e+07
7.431253e+00 2.167110e+07
7.681513e+00 2.053831e+07
7.940201e+00 1.944975e+07
8.207601e+00 1.840424e+07
8.484005e+00 1.740059e+07
8.769719e+00 1.643769e+07
9.065053e+00 1.551443e+07
9.370334e+00 1.462973e+07
9.685896e+00 1.378251e+07
1.001208e+01 1.297176e+07
1.034926e+01 1.219645e+07
1.069779e+01 1.145559e+07
1.105805e+01 1.074820e+07
1.143045e+01 1.007331e+07
1.181539e+01 9.429988e+06
1.221329e+01 8.817299e+06
1.262460e+01 8.234329e+06
1.304975e+01 7.680176e+06
1.348922e+01 7.153950e+06
1.394350e+01 6.654773e+06
1.441307e+01 6.181779e+06
1.489845e+01 5.734111e+06
1.540018e+01 5.310924e+06
1.591881e+01 4.911379e+06
1.645490e+01 4.534649e+06
1.700905e+01 4.179914e+06
1.758185e+01 3.846365e+06
1.817395e+01 3.533199e+06
1.878599e+01 3.239621e+06
1.941864e+01 2.964848e+06
2.007260e+01 2.708103e+06
2.074857e+01 2.468618e+06
2.144732e+01 2.245634e+06
2.216959e+01 2.038405e+06
2.291619e+01 1.846190e+06
2.368793e+01 1.668263e+06
2.448566e+01 1.503908e+06
2.531026e+01 1.352421e+06
2.616262e+01 1.213111e+06
2.704369e+01 1.085300e+06
2.795443e+01 9.683261e+05
2.889585e+01 8.615415e+05
2.986896e+01 7.644581e+05
3.087485e+01 6.778965e+05
3.191461e+01 6.011324e+05
3.298939e+01 5.330572e+05
3.410036e+01 4.726878e+05
3.524875e+01 4.191521e+05
3.643581e+01 3.716769e+05
3.766285e+01 3.295764e+05
3.893121e+01 2.922422e+05
4.024228e+01 2.591350e+05
4.159751e+01 2.297764e+05
4.299837e+01 2.037421e+05
4.444641e+01 1.806559e+05
4.594322e+01 1.601840e+05
4.749044e+01 1.420306e+05
4.908976e+01 1.259331e+05
5.074294e+01 1.116589e+05
5.245179e+01 9.900156e+04
5.421819e+01 8.777800e+04
5.604408e+01 7.782590e+04
5.793146e+01 6.900129e+04
5.988240e+01 6.117653e+04
6.189904e+01 5.423838e+04
6.398359e+01 4.808645e+04
6.613834e+01 4.263170e+04
6.836566e+01 3.779516e+04
7.066799e+01 3.350682e+04
7.304785e+01 2.970459e+04
7.550786e+01 2.633340e+04
7.805072e+01 2.334442e+04
8.067920e+01 2.069436e+04
8.339621e+01 1.834480e+04
8.620472e+01 1.626170e+04
8.910781e+01 1.441488e+04
9.210866e+01 1.277754e+04
9.521057e+01 1.132596e+04
9.841695e+01 1.003907e+04
1.017313e+02 8.898211e+03
1.051573e+02 7.886825e+03
1.086986e+02 6.990233e+03
1.123592e+02 6.195420e+03
1.161431e+02 5.490844e+03
1.200544e+02 4.866273e+03
1.240975e+02 4.312631e+03
1.282767e+02 3.821874e+03
1.325966e+02 3.386867e+03
1.370620e+02 3.001286e+03
1.416778e+02 2.659522e+03
1.464490e+02 2.356601e+03
1.513809e+02 2.088117e+03
1.564789e+02 1.850159e+03
1.617486e+02 1.639262e+03
1.671958e+02 1.452353e+03
1.728264e+02 1.286709e+03
1.786466e+02 1.139913e+03
1.846628e+02 1.009825e+03
1.908817e+02 8.945471e+02
1.973099e+02 7.923953e+02
2.039547e+02 7.018783e+02
2.108232e+02 6.216733e+02
2.179230e+02 5.506081e+02
2.252619e+02 4.876432e+02
2.328480e+02 4.318574e+02
2.406895e+02 3.824338e+02
2.487952e+02 3.386486e+02
2.571738e+02 2.998600e+02
2.658345e+02 2.654993e+02
2.747869e+02 2.350622e+02
2.840408e+02 2.081019e+02
2.936064e+02 1.842223e+02
3.034941e+02 1.630724e+02
3.137148e+02 1.443410e+02
3.242796e+02 1.277524e+02
3.352003e+02 1.130623e+02
3.464887e+02 1.000540e+02
3.581573e+02 8.853557e+01
3.702189e+02 7.833705e+01
3.826866e+02 6.930767e+01
3.955742e+02 6.131390e+01
4.088958e+02 5.423741e+01
4.226661e+02 4.797333e+01
4.369001e+02 4.242878e+01
4.516134e+02 3.752145e+01
4.668222e+02 3.317842e+01
4.825433e+02 2.933508e+01
4.987937e+02 2.593420e+01
5.155914e+02 2.292508e+01
5.329548e+02 2.026281e+01
5.509030e+02 1.790762e+01
5.694556e+02 1.582426e+01
5.886329e+02 1.398153e+01
6.084561e+02 1.235179e+01
6.289469e+02 1.091056e+01
6.501277e+02 9.636171e+00
6.720219e+02 8.509418e+00
6.946533e+02 7.513307e+00
7.180470e+02 6.632790e+00
7.422284e+02 5.854542e+00
7.672242e+02 5.166767e+00
7.930617e+02 4.559022e+00
8.197694e+02 4.022064e+00
8.473765e+02 3.547710e+00
8.759133e+02 3.128718e+00
9.054112e+02 2.758680e+00
9.359024e+02 2.431924e+00
9.674205e+02 2.143431e+00
1.000000e+03 1.888759e+00
