Energy(MeV)   SpectralFluence(cm^-2 MeV^-1)
4.999999999999999584e-02 8.670466685581010437e+10
5.125656852956848863e-02 8.473716648970700073e+10
5.254471634852703188e-02 8.271382999803559875e+10
5.386523708770030866e-02 8.087731016806919861e+10
5.521894432294330995e-02 7.900221494906243896e+10
5.660667207638742093e-02 7.717474078213674927e+10
5.802927533028327117e-02 7.547913304372969055e+10
5.948763055375728970e-02 7.378821859931182861e+10
6.098263624280626793e-02 7.212587043906987000e+10
6.251521347386294891e-02 7.049744226250370789e+10
6.408630647127319668e-02 6.886179221886056519e+10
6.569688318903491031e-02 6.725466809723207092e+10
6.734793590715650036e-02 6.574367758429920197e+10
6.904048184300307089e-02 6.428242317509504700e+10
7.077556377800633958e-02 6.285384370456118774e+10
7.255425070012455624e-02 6.145692662055263519e+10
7.437763846244858923e-02 6.009096915313433838e+10
7.624685045835931374e-02 5.875528414673940277e+10
7.816303831365310761e-02 5.741302637005072021e+10
8.012738259606101698e-02 5.614274941187039948e+10
8.214109354259911677e-02 5.483204803277090454e+10
8.420541180519856839e-02 5.358330421054830933e+10
8.632160921507393836e-02 5.235580283688269043e+10
8.849098956630137292e-02 5.114559529384065247e+10
9.071488941908918691e-02 5.000235456139806366e+10
9.299467892323547147e-02 4.890243549937975311e+10
9.533176266228075846e-02 4.780060486453479004e+10
9.772758051887507624e-02 4.668477307954387665e+10
1.001836085618929006e-01 4.558323032778421783e+10
1.027013599558425916e-01 4.452442941243787384e+10
1.052823858931305617e-01 4.351670517366567230e+10
1.079282765497544538e-01 4.249804435161609650e+10
1.106406620650142170e-01 4.149530995073213196e+10
1.134212135458446541e-01 4.055859486161048889e+10
1.162716440963881825e-01 3.959408543468623352e+10
1.191937098734423967e-01 3.876182787497180176e+10
1.221892111684321353e-01 3.786020173467613220e+10
1.252599935165732148e-01 3.692336081808795929e+10
1.284079488339107955e-01 3.605429459148486328e+10
1.316350165829335006e-01 3.522548849502182007e+10
1.349431849674803674e-01 3.441455272354709625e+10
1.383344921576779019e-01 3.363784160283737183e+10
1.418110275456614944e-01 3.288896000126672363e+10
1.453749330328545086e-01 3.215665719199051666e+10
1.490284043495987698e-01 3.141172384913472366e+10
1.527736924079491077e-01 3.069884705346408844e+10
1.566131046884652600e-01 2.998450294565731812e+10
1.605490066618561196e-01 2.928036372041267776e+10
1.645838232463515405e-01 2.858291927998594284e+10
1.687200403017001804e-01 2.791011012209650803e+10
1.729602061607130870e-01 2.726858262347679138e+10
1.773069331992977726e-01 2.664152001514036560e+10
1.817628994459485892e-01 2.604638450731060028e+10
1.863308502316866899e-01 2.549383622034814072e+10
1.910135998814642688e-01 2.494230823426809311e+10
1.958140334480770739e-01 2.440289060083636856e+10
2.007351084896516202e-01 2.382228563532788086e+10
2.057798568918039472e-01 2.323692083341323471e+10
2.109513867355909678e-01 2.270058664028902435e+10
2.162528842124065709e-01 2.216326479508021545e+10
2.216876155870011744e-01 2.161504818386126328e+10
2.272589292098353142e-01 2.106918546243498611e+10
2.329702575800056130e-01 2.057927149294732285e+10
2.388251194600157223e-01 2.011960627173781204e+10
2.448271220436935847e-01 1.963460375213514328e+10
2.509799631785922247e-01 1.918642160788518524e+10
2.572874336442418364e-01 1.877588005280156326e+10
2.637534194876577920e-01 1.833560279900649261e+10
2.703819044175432840e-01 1.789796506372399902e+10
2.771769722586609475e-01 1.744543085157946777e+10
2.841428094678872807e-01 1.701216202746412277e+10
2.912837077134978192e-01 1.661414500951068878e+10
2.986040665192740695e-01 1.621276341674804497e+10
3.061083959750600658e-01 1.581883532195108795e+10
3.138013195154392143e-01 1.540978249965372658e+10
3.216875767682426113e-01 1.502783027481808472e+10
3.297720264746451524e-01 1.466619222078897285e+10
3.380596494826465515e-01 1.431474740360252762e+10
3.465555518157836801e-01 1.396953096237485123e+10
3.552649678189628291e-01 1.363901208238205528e+10
3.641932633833523947e-01 1.329855500239967537e+10
3.733459392523198472e-01 1.297559101626013565e+10
3.827286344104530169e-01 1.265581966872812271e+10
3.923471295577511397e-01 1.232858470258365250e+10
4.022073506711272284e-01 1.202787971076636696e+10
4.123153726554165677e-01 1.173844961666546059e+10
4.226774230861386483e-01 1.145783753662314796e+10
4.332998860463218027e-01 1.118338190852557755e+10
4.441893060597502663e-01 1.089589571121456718e+10
4.553523921230614446e-01 1.060955014987519073e+10
4.667960218391729033e-01 1.034526103773975372e+10
4.785272456545905384e-01 1.010783091057962990e+10
4.905532912032035675e-01 9.855973528851322174e+09
5.028815677592476385e-01 9.608128790708681107e+09
5.155196708021744234e-01 9.366686031943811417e+09
5.284753866962449420e-01 9.129205235782669067e+09
5.417566974877258135e-01 8.904835147396102905e+09
5.553717858226469017e-01 8.682022379126502991e+09
5.693290399881467678e-01 8.469000124037154198e+09
5.836370590805177727e-01 8.258014777608990669e+09
5.983046583031275123e-01 8.054687928259874344e+09
6.133408743974867461e-01 7.860159804800768852e+09
6.287549712108049249e-01 7.672734193533993721e+09
6.445564454034697910e-01 7.483207073822916985e+09
6.607550322999605763e-01 7.290620403879993439e+09
6.773607118868038013e-01 7.111138782684526443e+09
6.943837149612652748e-01 6.932486638253311157e+09
7.118345294345690411e-01 6.755306048841021538e+09
7.297239067935227252e-01 6.585759193661592484e+09
7.480628687245334252e-01 6.426519282549487114e+09
7.668627139040929963e-01 6.257227544315572739e+09
7.861350249599204920e-01 6.074485761632191658e+09
8.058916756070441112e-01 5.909782374110537529e+09
8.261448379632249095e-01 5.746895519681191444e+09
8.469069900482264490e-01 5.592215913874279976e+09
8.681909234715501356e-01 5.442561003908117294e+09
8.900097513133773397e-01 5.294035094056859970e+09
9.123769162035668678e-01 5.147111642847179413e+09
9.353061986036904640e-01 5.007820548794329643e+09
9.588117252972053750e-01 4.859369016076636314e+09
9.829079780930002341e-01 4.732201941245010376e+09
1.007609802747669647e+00 4.602532984807279587e+09
1.032932418112018969e+00 4.472626288013506889e+09
1.058891425507431983e+00 4.347399631026586533e+09
1.085502818337883424e+00 4.233483303142546177e+09
1.112782991943509270e+00 4.117977678902503014e+09
1.140748753701815721e+00 4.001422732007238865e+09
1.169417333382739344e+00 3.895670620359191895e+09
1.198806393763952816e+00 3.792508439582759857e+09
1.228934041512938391e+00 3.681079954969347954e+09
1.259818838342550151e+00 3.578780717059215069e+09
1.291479812446926667e+00 3.477607635341031551e+09
1.323936470224803319e+00 3.380649010135574818e+09
1.357208808297453162e+00 3.283094402914961338e+09
1.391317325828647977e+00 3.191973195489256382e+09
1.426283037154242317e+00 3.105764462517993927e+09
1.462127484729150328e+00 3.020358505543330193e+09
1.498872752399706298e+00 2.939262907743115425e+09
1.536541479009570166e+00 2.855202086671607971e+09
1.575156872347572179e+00 2.772343147945228100e+09
1.614742723446082273e+00 2.695824737211679935e+09
1.655323421238723780e+00 2.615190585785004616e+09
1.696923967586448478e+00 2.541031675002940655e+09
1.739569992681242461e+00 2.465717096082246304e+09
1.783287770836941455e+00 2.392098135733392715e+09
1.828104236676902694e+00 2.321239737001722813e+09
1.874047001728483375e+00 2.248801639719562531e+09
1.921144371434567732e+00 2.178198608824024200e+09
1.969425362592615469e+00 2.108987830194867849e+09
2.018919721231973607e+00 2.039731788587659836e+09
2.069657940940479612e+00 1.976790761577912807e+09
2.121671281651626551e+00 1.918632255882675409e+09
2.174991788903881673e+00 1.861950794911060572e+09
2.229652313584011836e+00 1.802877307424025059e+09
2.285686532166597118e+00 1.742463440037339687e+09
2.343128967462179357e+00 1.689535380013816118e+09
2.402015009886846464e+00 1.643071147069653511e+09
2.462380939266346047e+00 1.590789213690731525e+09
2.524263947188174484e+00 1.538054532181200027e+09
2.587702159915394873e+00 1.493389541501850128e+09
2.652734661876318345e+00 1.445878276838051796e+09
2.719401519744504725e+00 1.394524892913550615e+09
2.787743807123938655e+00 1.351289153563032389e+09
2.857803629854566818e+00 1.305391577275476217e+09
2.929624151953804212e+00 1.264071127146577120e+09
3.003249622209984704e+00 1.223758532486202955e+09
3.078725401444136089e+00 1.182034351498793364e+09
3.156097990456892877e+00 1.140614857375160456e+09
3.235415058677742817e+00 1.099579526380167246e+09
3.316725473534273938e+00 1.058292823825380325e+09
3.400079330559500956e+00 1.019660949191865444e+09
3.485527984255849088e+00 9.822613535275931358e+08
3.573124079734773417e+00 9.479404633979240656e+08
3.662921585151537762e+00 9.115267799843829870e+08
3.754975824955109509e+00 8.748499035081361532e+08
3.849343513973691344e+00 8.392734892761219740e+08
3.946082792356850888e+00 8.060421331867145300e+08
4.045253261395798994e+00 7.772111588606966734e+08
4.146916020243886614e+00 7.464248983834701777e+08
4.251133703559925259e+00 7.180514887331537008e+08
4.357970520097552480e+00 6.905035033932787180e+08
4.467492292264389597e+00 6.637632915659841299e+08
4.579766496675377496e+00 6.376954956713624001e+08
4.694862305725266083e+00 6.106539832299623489e+08
4.812850630205901759e+00 5.850765105607261658e+08
4.933804162994515075e+00 5.613263757631078959e+08
5.057797423839976325e+00 5.383137593309017420e+08
5.184906805274573038e+00 5.157398474175632596e+08
5.315210619679646697e+00 4.929410660264536738e+08
5.448789147534004229e+00 4.709039454712633491e+08
5.585724686874913303e+00 4.501704525353010893e+08
5.726101604002133527e+00 4.305386528792449236e+08
5.870006385456146170e+00 4.115548509790077209e+08
6.017527691302755777e+00 3.926160874271203876e+08
6.168756409756720238e+00 3.742854934315378070e+08
6.323785713178201817e+00 3.559329851604589820e+08
6.482711115476496921e+00 3.389824553636335135e+08
6.645630530956333715e+00 3.230167400562880039e+08
6.812644334643117361e+00 3.073926391565319896e+08
6.983855424124233657e+00 2.915634151830749512e+08
7.159369282944445523e+00 2.768313090842697620e+08
7.339294045594597193e+00 2.626671164908174872e+08
7.523740564133473363e+00 2.490565183828183711e+08
7.712822476484030965e+00 2.364213501378508210e+08
7.906656276446002884e+00 2.242751890486474335e+08
8.105361385467952928e+00 2.122717325279566050e+08
8.309060226223124346e+00 2.007470260092568994e+08
8.517878298034354145e+00 1.910812418756649494e+08
8.731944254194438315e+00 1.802907449033732414e+08
8.951389981229787907e+00 1.696469812514249980e+08
9.176350680155954009e+00 1.588560545520683229e+08
9.406964949775320051e+00 1.493255598449987173e+08
9.643374872068156023e+00 1.402350823431033790e+08
9.885726099729600591e+00 1.322300581686055660e+08
1.013416794590668957e+01 1.240028136199560016e+08
1.038885347619045696e+01 1.161752704163694978e+08
1.064993960292003727e+01 1.090879412904236019e+08
1.091758718185673338e+01 1.025223842092570066e+08
1.119196111128757209e+01 9.579461374931707978e+07
1.147323043361953410e+01 8.941343010200485587e+07
1.176156843952701792e+01 8.368764713454717398e+07
1.205715277471652591e+01 7.874659646890011430e+07
1.236016554937469891e+01 7.403418133756658435e+07
1.267079345036672500e+01 6.931113934191894531e+07
1.298922785625458687e+01 6.460388681065480411e+07
1.331566495520587345e+01 5.981908715955583751e+07
1.365030586586566486e+01 5.529367864897221327e+07
1.399335676126629302e+01 5.092967724995890260e+07
1.434502899585093516e+01 4.671763974866335839e+07
1.470553923568960641e+01 4.303928364358490705e+07
1.507510959196766187e+01 3.963590902116588503e+07
1.545396775782892540e+01 3.644925832540745288e+07
1.584234714865799809e+01 3.359224632173836231e+07
1.624048704588806302e+01 3.087242827211238816e+07
1.664863274442261343e+01 2.834697000091039017e+07
1.706703570376232193e+01 2.600891082517346367e+07
1.749595370292972518e+01 2.382785136296980083e+07
1.793565099928749618e+01 2.179610351825428382e+07
1.838639849134807491e+01 1.990617426414386556e+07
1.884847388567475690e+01 1.815869805461961403e+07
1.932216186797739965e+01 1.647635735528220795e+07
1.980775427850798565e+01 1.486898275983748026e+07
2.030555029186395544e+01 1.341949646721511707e+07
2.081585660131050020e+01 1.212443741925142333e+07
2.133898760773486103e+01 1.093303328897242807e+07
2.187526561334948383e+01 9.839029988416075706e+06
2.242502102026323385e+01 8.836387504244105890e+06
2.298859253404271996e+01 7.919282805224470794e+06
2.356632737238976105e+01 7.082112259594012983e+06
2.415858147906284614e+01 6.319493529362773523e+06
2.476571974317496938e+01 5.622144805769836530e+06
2.538811622400271872e+01 4.982760703090315685e+06
2.602615438144491833e+01 4.405314807918796316e+06
2.668022731227320321e+01 3.885045573260298930e+06
2.735073799231994585e+01 3.417434522933843546e+06
2.803809952475238987e+01 2.998204018651881255e+06
2.874273539458667059e+01 2.623314326546780299e+06
2.946507972959772914e+01 2.288959995975731872e+06
3.020557756778649861e+01 1.988880880404177355e+06
3.096468513156892755e+01 1.723041541219323641e+06
3.174287010885545257e+01 1.488250489085811423e+06
3.254061194119483957e+01 1.281494676320391241e+06
3.335840211915898124e+01 1.099979058413007529e+06
3.419674448515149123e+01 9.411186352528808638e+05
3.505615554382623600e+01 8.025300722449156456e+05
3.593716478030686545e+01 6.820229621530651348e+05
3.684031498640386104e+01 5.775907911658516387e+05
3.776616259503000350e+01 4.874016745117371902e+05
3.871527802301961430e+01 4.097889279278041795e+05
3.968824602256406564e+01 3.432582905267495662e+05
4.068566604147860488e+01 2.868189933366181212e+05
4.170815259252370311e+01 2.391976644293843710e+05
4.275633563200784693e+01 1.994471333540374471e+05
4.383086094790481013e+01 1.666697536972776579e+05
4.493239055772543367e+01 1.389414884154519241e+05
4.606160311638782900e+01 1.145015387386993243e+05
4.721919433433834712e+01 9.410700626945876866e+04
4.840587740618054369e+01 7.718802409653624636e+04
4.962238345007571638e+01 6.317805132391458028e+04
5.086946195818661209e+01 5.159968606282840483e+04
5.214788125844142286e+01 4.205080251600922202e+04
5.345842898790204600e+01 3.419290221057897725e+04
5.480191257802947291e+01 2.774130351417100974e+04
5.617915975214381774e+01 2.245686143392306985e+04
5.759101903538669376e+01 1.815793995499235098e+04
5.903836027749967030e+01 1.505079767859677486e+04
6.052207518874035941e+01 1.233396644789242418e+04
6.204307788926732314e+01 9.793239445717857961e+03
6.360230547233176424e+01 7.650910810000425954e+03
6.520071858162242506e+01 6.106298871263531510e+03
6.683930200312083514e+01 4.737757702433429586e+03
6.851906527182978834e+01 3.866376026989243201e+03
7.024104329375037992e+01 3.261285910680939651e+03
7.200629698349011676e+01 2.702478276921835459e+03
7.381591391789442014e+01 2.182894342754649188e+03
7.567100900610572012e+01 1.694800292977755362e+03
7.757272517646110543e+01 1.310265931032432263e+03
7.952223408065320598e+01 1.012991662685719689e+03
8.152073681558781004e+01 7.831731563609909017e+02
8.356946466338193602e+01 6.055014849758415494e+02
8.566967984995973495e+01 4.708580117926485400e+02
8.782267632271313573e+01 3.719939333158268369e+02
9.002978054770512983e+01 2.883930279204255953e+02
9.229235232690926694e+01 2.238765406037147727e+02
9.461178563598616620e+01 1.826627504758364751e+02
9.698950948311532727e+01 1.417569359356534733e+02
9.942698878941074270e+01 1.096498461527560124e+02
1.019257252914613616e+02 8.748370192849819205e+01
1.044872584665553035e+02 7.279370611989695306e+01
1.071131664811546216e+02 5.818216621922799447e+01
1.098050671632075677e+02 4.547899545427026879e+01
1.125646189988964636e+02 3.594616915399979717e+01
1.153935221544341658e+02 2.829761576479998553e+01
1.182935195235406525e+02 2.197687075611888829e+01
1.212663978012442669e+02 1.772561382479981873e+01
1.243139885846677686e+02 1.445113390700753264e+01
1.274381695014804592e+02 1.178643061927355618e+01
1.306408653667080557e+02 9.617057069497148447e+00
1.339240493686160107e+02 7.860823062390375426e+00
1.372897442843956810e+02 6.381991570690446203e+00
1.407400237264013185e+02 5.093239175825586607e+00
1.442770134197076572e+02 4.092293704065754767e+00
1.479028925117744393e+02 3.294950523553370036e+00
1.516198949150233375e+02 2.723396832459220374e+00
1.554303106831574439e+02 2.251576656162381784e+00
1.593364874220677336e+02 1.859297991053129095e+00
1.633408317361987940e+02 1.505056713171620375e+00
1.674458107112639027e+02 1.218321620905624902e+00
1.716539534342209663e+02 9.862255754742733638e-01
1.759678525514502212e+02 7.983545318039987349e-01
1.803901658660883527e+02 6.462797606228517511e-01
1.849236179755076250e+02 5.061261627909683369e-01
1.895710019499471457e+02 3.928239257955378205e-01
1.943351810533286823e+02 3.055077381587111285e-01
1.992190905073207716e+02 2.457613951514194817e-01
2.042257392997360341e+02 1.993462458184343256e-01
2.093582120383740914e+02 1.616977267433037935e-01
2.146196708514571867e+02 1.311599435765646859e-01
2.200133573358231160e+02 1.063897968832345914e-01
2.255425945540810915e+02 8.629789214390173879e-02
2.312107890819589215e+02 6.979118541304990542e-02
2.370214331071005915e+02 5.541891754779793705e-02
2.429781065806128595e+02 4.402081603041036600e-02
2.490844794226797774e+02 3.497848146354018417e-02
2.553443137836094934e+02 2.750310186613647706e-02
2.617614663617045494e+02 2.196383736213282367e-02
2.683398907793811077e+02 1.778376893252581539e-02
2.750836400190053723e+02 1.438772255200641663e-02
2.819968689199461096e+02 1.160356975895229271e-02
2.890838367383791478e+02 9.127467403368795182e-03
2.963489097714265768e+02 7.185054273806956021e-03
3.037965640472409063e+02 5.660184788042589045e-03
3.114313880826968557e+02 4.462222207209462325e-03
3.192580857103880589e+02 3.520388282969038121e-03
3.272814789766669605e+02 2.739054683258779731e-03
3.355065111125214230e+02 2.157641246722553485e-03
3.439382495791080032e+02 1.701106876652897599e-03
3.525818891898274501e+02 1.342330682155423597e-03
3.614427553108625375e+02 1.060142056311592787e-03
3.705263071421458676e+02 8.380031762259509661e-04
3.798381410807867269e+02 6.813905778321395924e-04
3.893839941690252431e+02 5.610720218397948628e-04
3.991697476288346706e+02 4.620645241835417733e-04
4.092014304853587419e+02 3.805819364762081107e-04
4.194852232814052400e+02 3.072594406310258006e-04
4.300274618852935760e+02 2.462219804218787459e-04
4.408346413943993412e+02 1.973575495222199114e-04
4.519134201367959349e+02 1.582289454934376427e-04
4.632706237734669799e+02 1.268887923594491261e-04
4.749132495036133719e+02 1.017807294849184261e-04
4.868484703756402041e+02 8.166060492952239571e-05
4.990836397064922494e+02 6.553360938551506902e-05
5.116262956120461354e+02 5.248783047762019277e-05
5.244841656513619910e+02 4.112152174949950897e-05
5.376651715876515709e+02 3.221780911876956366e-05
5.511774342688942170e+02 2.559051008217377217e-05
5.650292786311059672e+02 2.059556072916081171e-05
5.792292388273584720e+02 1.659557091501493958e-05
5.937860634856868955e+02 1.338862388430552970e-05
6.087087210991361417e+02 1.081446032008091835e-05
6.240064055512771120e+02 8.745762061446715537e-06
6.396885417805758607e+02 7.157625556245968034e-06
6.557647915871162922e+02 5.972155564961704617e-06
6.722450595852642437e+02 4.983032363231761087e-06
6.891394993059187755e+02 4.157734533356592222e-06
7.064585194521280300e+02 3.468513190698602817e-06
7.242127903119096572e+02 2.825559918629810684e-06
7.424132503322480261e+02 2.302739780165078974e-06
7.610711128582923948e+02 1.877435313870367752e-06
7.801978730419201611e+02 1.513866676373721579e-06
7.998053149239348159e+02 1.203480460316311380e-06
8.199055186942368891e+02 9.319713594879725110e-07
8.405108681344507886e+02 7.217538714337109130e-07
8.616340582476112786e+02 5.589831266182490873e-07
8.832881030795794004e+02 4.329435564949529490e-07
9.054863437370200927e+02 3.349089909624173783e-07
9.282424566068992817e+02 2.567438689361260533e-07
9.515704617825323339e+02 1.968230451116298561e-07
9.754847317013898191e+02 1.508878939918453559e-07
