Energy(MeV)   SpectralFluence(cm^-2 MeV^-1)
4.999999999999999584e-02 2.759895263847640228e+10
5.125656852956848863e-02 2.697267782087555695e+10
5.254471634852703188e-02 2.632862981250012207e+10
5.386523708770030866e-02 2.574404739444924164e+10
5.521894432294330995e-02 2.514718604870343018e+10
5.660667207638742093e-02 2.456548295462549591e+10
5.802927533028327117e-02 2.402575424840079117e+10
5.948763055375728970e-02 2.348751946405161285e+10
6.098263624280626793e-02 2.295837761036716461e+10
6.251521347386294891e-02 2.244003282282591248e+10
6.408630647127319668e-02 2.191938924359734726e+10
6.569688318903491031e-02 2.140782574735855865e+10
6.734793590715650036e-02 2.092686252916210938e+10
6.904048184300307089e-02 2.046173080448277283e+10
7.077556377800633958e-02 2.000699983581264114e+10
7.255425070012455624e-02 1.956234731779368591e+10
7.437763846244858923e-02 1.912754955180786896e+10
7.624685045835931374e-02 1.870238780944490051e+10
7.816303831365310761e-02 1.827513388931781769e+10
8.012738259606101698e-02 1.787079217533754730e+10
8.214109354259911677e-02 1.745358296853544998e+10
8.420541180519856839e-02 1.705609546461106491e+10
8.632160921507393836e-02 1.666536964206911469e+10
8.849098956630137292e-02 1.628014861678463745e+10
9.071488941908918691e-02 1.591624378936016464e+10
9.299467892323547147e-02 1.556612867791773415e+10
9.533176266228075846e-02 1.521540509394642067e+10
9.772758051887507624e-02 1.486022480546570587e+10
1.001836085618929006e-01 1.450959285752651024e+10
1.027013599558425916e-01 1.417256605867132187e+10
1.052823858931305617e-01 1.385179747092309570e+10
1.079282765497544538e-01 1.352754766059660721e+10
1.106406620650142170e-01 1.320836738757866096e+10
1.134212135458446541e-01 1.291020171417371178e+10
1.162716440963881825e-01 1.260318882826626015e+10
1.191937098734423967e-01 1.233827301915795898e+10
1.221892111684321353e-01 1.205127650506011391e+10
1.252599935165732148e-01 1.175307077952861404e+10
1.284079488339107955e-01 1.147643840785240746e+10
1.316350165829335006e-01 1.121262123361882401e+10
1.349431849674803674e-01 1.095449236049834061e+10
1.383344921576779019e-01 1.070725753206754303e+10
1.418110275456614944e-01 1.046888111470645523e+10
1.453749330328545086e-01 1.023578189083367538e+10
1.490284043495987698e-01 9.998662243254737854e+09
1.527736924079491077e-01 9.771746511561752319e+09
1.566131046884652600e-01 9.544363719909717560e+09
1.605490066618561196e-01 9.320229243264553070e+09
1.645838232463515405e-01 9.098225782812801361e+09
1.687200403017001804e-01 8.884063976341604233e+09
1.729602061607130870e-01 8.679859431272190094e+09
1.773069331992977726e-01 8.480259203782511711e+09
1.817628994459485892e-01 8.290821688021286011e+09
1.863308502316866899e-01 8.114940105687217712e+09
1.910135998814642688e-01 7.939383295210902214e+09
1.958140334480770739e-01 7.767681329707719803e+09
2.007351084896516202e-01 7.582869029218969345e+09
2.057798568918039472e-01 7.396541625745521545e+09
2.109513867355909678e-01 7.225821149775678635e+09
2.162528842124065709e-01 7.054786294383197784e+09
2.216876155870011744e-01 6.880283527262029648e+09
2.272589292098353142e-01 6.706530026532857895e+09
2.329702575800056130e-01 6.550585566665390015e+09
2.388251194600157223e-01 6.404269582419544220e+09
2.448271220436935847e-01 6.249888485605966568e+09
2.509799631785922247e-01 6.107227678280155182e+09
2.572874336442418364e-01 5.976548242607770920e+09
2.637534194876577920e-01 5.836403640062951088e+09
2.703819044175432840e-01 5.697099222355447769e+09
2.771769722586609475e-01 5.553053108793451309e+09
2.841428094678872807e-01 5.415139358702310562e+09
2.912837077134978192e-01 5.288446607018341064e+09
2.986040665192740695e-01 5.160682877909795761e+09
3.061083959750600658e-01 5.035291670890378952e+09
3.138013195154392143e-01 4.905086113581747055e+09
3.216875767682426113e-01 4.783506944366668701e+09
3.297720264746451524e-01 4.668393976548933983e+09
3.380596494826465515e-01 4.556525616790433884e+09
3.465555518157836801e-01 4.446639810674478531e+09
3.552649678189628291e-01 4.341432383602377892e+09
3.641932633833523947e-01 4.233061529222720623e+09
3.733459392523198472e-01 4.130258899553180695e+09
3.827286344104530169e-01 4.028472518315428257e+09
3.923471295577511397e-01 3.924310393486625195e+09
4.022073506711272284e-01 3.828593021766367435e+09
4.123153726554165677e-01 3.736464561454944134e+09
4.226774230861386483e-01 3.647142962194878578e+09
4.332998860463218027e-01 3.559781022452640533e+09
4.441893060597502663e-01 3.468271323707161903e+09
4.553523921230614446e-01 3.377124700667991638e+09
4.667960218391729033e-01 3.292998863464545250e+09
4.785272456545905384e-01 3.217422506711603642e+09
4.905532912032035675e-01 3.137253812199118137e+09
5.028815677592476385e-01 3.058362381809682846e+09
5.155196708021744234e-01 2.981508764747336388e+09
5.284753866962449420e-01 2.905916279550447464e+09
5.417566974877258135e-01 2.834497062253072262e+09
5.553717858226469017e-01 2.763573555344881058e+09
5.693290399881467678e-01 2.695766465572775841e+09
5.836370590805177727e-01 2.628607743964779377e+09
5.983046583031275123e-01 2.563886797690353394e+09
6.133408743974867461e-01 2.501966572852539062e+09
6.287549712108049249e-01 2.442307147862284660e+09
6.445564454034697910e-01 2.381978791958310127e+09
6.607550322999605763e-01 2.320676550968262672e+09
6.773607118868038013e-01 2.263545776553451538e+09
6.943837149612652748e-01 2.206679032793061256e+09
7.118345294345690411e-01 2.150280699543258190e+09
7.297239067935227252e-01 2.096312259368274689e+09
7.480628687245334252e-01 2.045624621386263371e+09
7.668627139040929963e-01 1.991737387457170010e+09
7.861350249599204920e-01 1.933568871410200119e+09
8.058916756070441112e-01 1.881142154874097347e+09
8.261448379632249095e-01 1.829293658779856682e+09
8.469069900482264490e-01 1.780057611060505152e+09
8.681909234715501356e-01 1.732420973702330351e+09
8.900097513133773397e-01 1.685143708242232561e+09
9.123769162035668678e-01 1.638376521209949493e+09
9.353061986036904640e-01 1.594038788915571213e+09
9.588117252972053750e-01 1.546785198432393074e+09
9.829079780930002341e-01 1.506306661316412687e+09
1.007609802747669647e+00 1.465031750551147461e+09
1.032932418112018969e+00 1.423681164680209637e+09
1.058891425507431983e+00 1.383820281747526407e+09
1.085502818337883424e+00 1.347559588384282112e+09
1.112782991943509270e+00 1.310793006278846264e+09
1.140748753701815721e+00 1.273692414398457050e+09
1.169417333382739344e+00 1.240030471776071548e+09
1.198806393763952816e+00 1.207192929754653931e+09
1.228934041512938391e+00 1.171724141499726534e+09
1.259818838342550151e+00 1.139161282723863602e+09
1.291479812446926667e+00 1.106956890597285271e+09
1.323936470224803319e+00 1.076094001643599510e+09
1.357208808297453162e+00 1.045041405722501516e+09
1.391317325828647977e+00 1.016036624557895899e+09
1.426283037154242317e+00 9.885955325777645111e+08
1.462127484729150328e+00 9.614099721337416172e+08
1.498872752399706298e+00 9.355964416279487610e+08
1.536541479009570166e+00 9.088390512401611805e+08
1.575156872347572179e+00 8.824642318848575354e+08
1.614742723446082273e+00 8.581076652732973099e+08
1.655323421238723780e+00 8.324410177101457119e+08
1.696923967586448478e+00 8.088355032595930099e+08
1.739569992681242461e+00 7.848621282153667212e+08
1.783287770836941455e+00 7.614284853257540464e+08
1.828104236676902694e+00 7.388735564903106689e+08
1.874047001728483375e+00 7.158157939890558720e+08
1.921144371434567732e+00 6.933421512604663372e+08
1.969425362592615469e+00 6.713116761923280954e+08
2.018919721231973607e+00 6.492667934707977772e+08
2.069657940940479612e+00 6.292320423270343542e+08
2.121671281651626551e+00 6.107196149985640049e+08
2.174991788903881673e+00 5.926773456079583168e+08
2.229652313584011836e+00 5.738736705294804573e+08
2.285686532166597118e+00 5.546433392777019739e+08
2.343128967462179357e+00 5.377958145156853199e+08
2.402015009886846464e+00 5.230057898156118393e+08
2.462380939266346047e+00 5.063639335522986650e+08
2.524263947188174484e+00 4.895779630830612183e+08
2.587702159915394873e+00 4.753606549835172892e+08
2.652734661876318345e+00 4.602373497359356880e+08
2.719401519744504725e+00 4.438910599437751770e+08
2.787743807123938655e+00 4.301286966720396876e+08
2.857803629854566818e+00 4.155190443878358603e+08
2.929624151953804212e+00 4.023663366102429628e+08
3.003249622209984704e+00 3.895344391921259761e+08
3.078725401444136089e+00 3.762532198909117579e+08
3.156097990456892877e+00 3.630689854306279421e+08
3.235415058677742817e+00 3.500070338920974731e+08
3.316725473534273938e+00 3.368650683009792566e+08
3.400079330559500956e+00 3.245681606833186746e+08
3.485527984255849088e+00 3.126634996441043615e+08
3.573124079734773417e+00 3.017388210132030249e+08
3.662921585151537762e+00 2.901479855903061628e+08
3.754975824955109509e+00 2.784733732135750651e+08
3.849343513973691344e+00 2.671490488485552669e+08
3.946082792356850888e+00 2.565711796740029454e+08
4.045253261395798994e+00 2.473939955177204013e+08
4.146916020243886614e+00 2.375944244491899014e+08
4.251133703559925259e+00 2.285628876527516246e+08
4.357970520097552480e+00 2.197940915746232867e+08
4.467492292264389597e+00 2.112824177913466692e+08
4.579766496675377496e+00 2.029847806470673680e+08
4.694862305725266083e+00 1.943771998996077478e+08
4.812850630205901759e+00 1.862356374853941500e+08
4.933804162994515075e+00 1.786757347811145782e+08
5.057797423839976325e+00 1.713505914637878239e+08
5.184906805274573038e+00 1.641650921319301426e+08
5.315210619679646697e+00 1.569080146221969128e+08
5.448789147534004229e+00 1.498933812864558101e+08
5.585724686874913303e+00 1.432937055098172426e+08
5.726101604002133527e+00 1.370447095957150161e+08
5.870006385456146170e+00 1.310019777735148817e+08
6.017527691302755777e+00 1.249735821028519124e+08
6.168756409756720238e+00 1.191387728144367337e+08
6.323785713178201817e+00 1.132969879954825640e+08
6.482711115476496921e+00 1.079014667851000875e+08
6.645630530956333715e+00 1.028194217627761364e+08
6.812644334643117361e+00 9.784611598365074396e+07
6.983855424124233657e+00 9.280751750228190422e+07
7.159369282944445523e+00 8.811814248672369123e+07
7.339294045594597193e+00 8.360953995441660285e+07
7.523740564133473363e+00 7.927715201976609230e+07
7.712822476484030965e+00 7.525525305379742384e+07
7.906656276446002884e+00 7.138900989992310107e+07
8.105361385467952928e+00 6.756819102100992203e+07
8.309060226223124346e+00 6.389976300074102730e+07
8.517878298034354145e+00 6.082304835330028832e+07
8.731944254194438315e+00 5.738832649018357694e+07
8.951389981229787907e+00 5.400031129356476665e+07
9.176350680155954009e+00 5.056545264407490939e+07
9.406964949775320051e+00 4.753180195859237015e+07
9.643374872068156023e+00 4.463821309960775077e+07
9.885726099729600591e+00 4.209013476572486013e+07
1.013416794590668957e+01 3.947132148983800411e+07
1.038885347619045696e+01 3.697973710360568017e+07
1.064993960292003727e+01 3.472377017617877573e+07
1.091758718185673338e+01 3.263388844893945754e+07
1.119196111128757209e+01 3.049237259956530854e+07
1.147323043361953410e+01 2.846117875907149166e+07
1.176156843952701792e+01 2.663860543438694626e+07
1.205715277471652591e+01 2.506582015937648714e+07
1.236016554937469891e+01 2.356581183527093753e+07
1.267079345036672500e+01 2.206242087519507855e+07
1.298922785625458687e+01 2.056405585773002729e+07
1.331566495520587345e+01 1.904100682537647337e+07
1.365030586586566486e+01 1.760052455743744224e+07
1.399335676126629302e+01 1.621141976881161146e+07
1.434502899585093516e+01 1.487068659117236920e+07
1.470553923568960641e+01 1.369982947802139632e+07
1.507510959196766187e+01 1.261650168931839615e+07
1.545396775782892540e+01 1.160215926904403046e+07
1.584234714865799809e+01 1.069274410333039984e+07
1.624048704588806302e+01 9.826999129513336346e+06
1.664863274442261343e+01 9.023120794645115733e+06
1.706703570376232193e+01 8.278893444525326602e+06
1.749595370292972518e+01 7.584640655351199210e+06
1.793565099928749618e+01 6.937915230145640671e+06
1.838639849134807491e+01 6.336332064374336973e+06
1.884847388567475690e+01 5.780093111011790112e+06
1.932216186797739965e+01 5.244587434483341873e+06
1.980775427850798565e+01 4.732944209952614270e+06
2.030555029186395544e+01 4.271558393123025075e+06
2.081585660131050020e+01 3.859328294964413159e+06
2.133898760773486103e+01 3.480092581856408156e+06
2.187526561334948383e+01 3.131860515771624167e+06
2.242502102026323385e+01 2.812709500751811545e+06
2.298859253404271996e+01 2.520786008388251998e+06
2.356632737238976105e+01 2.254306347292198800e+06
2.415858147906284614e+01 2.011557266070666257e+06
2.476571974317496938e+01 1.789584273233386688e+06
2.538811622400271872e+01 1.586061992281743325e+06
2.602615438144491833e+01 1.402255255112399813e+06
2.668022731227320321e+01 1.236648414243325591e+06
2.735073799231994585e+01 1.087803194035628811e+06
2.803809952475238987e+01 9.543579799328641966e+05
2.874273539458667059e+01 8.350268847074131481e+05
2.946507972959772914e+01 7.285985957982852124e+05
3.020557756778649861e+01 6.330804466745711397e+05
3.096468513156892755e+01 5.484611568754662294e+05
3.174287010885545257e+01 4.737248437938754214e+05
3.254061194119483957e+01 4.079124245646774070e+05
3.335840211915898124e+01 3.501342088879976654e+05
3.419674448515149123e+01 2.995673656727889320e+05
3.505615554382623600e+01 2.554532559553484316e+05
3.593716478030686545e+01 2.170946514576739573e+05
3.684031498640386104e+01 1.838528589968078595e+05
3.776616259503000350e+01 1.551447715396200656e+05
3.871527802301961430e+01 1.304398670080769516e+05
3.968824602256406564e+01 1.092625073892122018e+05
4.068566604147860488e+01 9.129732112432832946e+04
4.170815259252370311e+01 7.613898133994589443e+04
4.275633563200784693e+01 6.348599431760698644e+04
4.383086094790481013e+01 5.305263032966088213e+04
4.493239055772543367e+01 4.422644936372897064e+04
4.606160311638782900e+01 3.644697176378428412e+04
4.721919433433834712e+01 2.995519045472869766e+04
4.840587740618054369e+01 2.456971116492014698e+04
4.962238345007571638e+01 2.011019832622893591e+04
5.086946195818661209e+01 1.642469019777823996e+04
5.214788125844142286e+01 1.338518616280795504e+04
5.345842898790204600e+01 1.088393881094288008e+04
5.480191257802947291e+01 8.830331164185767193e+03
5.617915975214381774e+01 7.148241007077211179e+03
5.759101903538669376e+01 5.779851800405720496e+03
5.903836027749967030e+01 4.790817696049400183e+03
6.052207518874035941e+01 3.926023456223330413e+03
6.204307788926732314e+01 3.117284933337060465e+03
6.360230547233176424e+01 2.435360549133569293e+03
6.520071858162242506e+01 1.943695298716104162e+03
6.683930200312083514e+01 1.508075115027962511e+03
6.851906527182978834e+01 1.230705713094682778e+03
7.024104329375037992e+01 1.038099547041650112e+03
7.200629698349011676e+01 8.602255527411562070e+02
7.381591391789442014e+01 6.948368497934729930e+02
7.567100900610572012e+01 5.394716883620044428e+02
7.757272517646110543e+01 4.170705993774320177e+02
7.952223408065320598e+01 3.224452608546203010e+02
8.152073681558781004e+01 2.492917582634671021e+02
8.356946466338193602e+01 1.927371087667763732e+02
8.566967984995973495e+01 1.498787601424439231e+02
8.782267632271313573e+01 1.184093465748214555e+02
9.002978054770512983e+01 9.179835189354943736e+01
9.229235232690926694e+01 7.126211615878924022e+01
9.461178563598616620e+01 5.814335931398166224e+01
9.698950948311532727e+01 4.512263414344076295e+01
9.942698878941074270e+01 3.490263004895392385e+01
1.019257252914613616e+02 2.784692720379693043e+01
1.044872584665553035e+02 2.317095630992070454e+01
1.071131664811546216e+02 1.851995870716885406e+01
1.098050671632075677e+02 1.447641386680190223e+01
1.125646189988964636e+02 1.144202101215296352e+01
1.153935221544341658e+02 9.007410853366124570e+00
1.182935195235406525e+02 6.995455229056081414e+00
1.212663978012442669e+02 5.642238119109856953e+00
1.243139885846677686e+02 4.599938789166285957e+00
1.274381695014804592e+02 3.751737388934111461e+00
1.306408653667080557e+02 3.061204341214657010e+00
1.339240493686160107e+02 2.502177694300397270e+00
1.372897442843956810e+02 2.031451010492387521e+00
1.407400237264013185e+02 1.621228382363866238e+00
1.442770134197076572e+02 1.302617543171813663e+00
1.479028925117744393e+02 1.048815326133494708e+00
1.516198949150233375e+02 8.668841357733905184e-01
1.554303106831574439e+02 7.166991091571277561e-01
1.593364874220677336e+02 5.918329319138722067e-01
1.633408317361987940e+02 4.790744310698085706e-01
1.674458107112639027e+02 3.878038164857208203e-01
1.716539534342209663e+02 3.139253506807594407e-01
1.759678525514502212e+02 2.541241401528443467e-01
1.803901658660883527e+02 2.057172370467474365e-01
1.849236179755076250e+02 1.611049612726318525e-01
1.895710019499471457e+02 1.250397391102474887e-01
1.943351810533286823e+02 9.724613336156666399e-02
1.992190905073207716e+02 7.822828171901793914e-02
2.042257392997360341e+02 6.345388081763178589e-02
2.093582120383740914e+02 5.146998499583871345e-02
2.146196708514571867e+02 4.174950671172871636e-02
2.200133573358231160e+02 3.386492413701901183e-02
2.255425945540810915e+02 2.746947222622640739e-02
2.312107890819589215e+02 2.221522428545974828e-02
2.370214331071005915e+02 1.764038933706844198e-02
2.429781065806128595e+02 1.401226094035751268e-02
2.490844794226797774e+02 1.113399645354130885e-02
2.553443137836094934e+02 8.754509224711102752e-03
2.617614663617045494e+02 6.991306570899788464e-03
2.683398907793811077e+02 5.660749464831124622e-03
2.750836400190053723e+02 4.579754327973121000e-03
2.819968689199461096e+02 3.693530969297779618e-03
2.890838367383791478e+02 2.905363110312580467e-03
2.963489097714265768e+02 2.287073808119851129e-03
3.037965640472409063e+02 1.801692775661059825e-03
3.114313880826968557e+02 1.420369442903627287e-03
3.192580857103880589e+02 1.120574393674624849e-03
3.272814789766669605e+02 8.718681844792810619e-04
3.355065111125214230e+02 6.867985396697081930e-04
3.439382495791080032e+02 5.414791362938475025e-04
3.525818891898274501e+02 4.272771266579030195e-04
3.614427553108625375e+02 3.374536972831929191e-04
3.705263071421458676e+02 2.667446956461375562e-04
3.798381410807867269e+02 2.168933572764557196e-04
3.893839941690252431e+02 1.785947714127344359e-04
3.991697476288346706e+02 1.470797061024305867e-04
4.092014304853587419e+02 1.211429928833484551e-04
4.194852232814052400e+02 9.780371757615702159e-05
4.300274618852935760e+02 7.837489056403577014e-05
4.408346413943993412e+02 6.282085912592965684e-05
4.519134201367959349e+02 5.036583763099735604e-05
4.632706237734669799e+02 4.038995705393490449e-05
4.749132495036133719e+02 3.239781241804757107e-05
4.868484703756402041e+02 2.599337786081577041e-05
4.990836397064922494e+02 2.085999574471630017e-05
5.116262956120461354e+02 1.670739534536538361e-05
5.244841656513619910e+02 1.308938690778746158e-05
5.376651715876515709e+02 1.025524715368663363e-05
5.511774342688942170e+02 8.145712351641880945e-06
5.650292786311059672e+02 6.555770591590527362e-06
5.792292388273584720e+02 5.282534289113432120e-06
5.937860634856868955e+02 4.261731344770874929e-06
6.087087210991361417e+02 3.442349633624077784e-06
6.240064055512771120e+02 2.783862526369618867e-06
6.396885417805758607e+02 2.278342976154845564e-06
6.557647915871162922e+02 1.900996158154852368e-06
6.722450595852642437e+02 1.586148464390447446e-06
6.891394993059187755e+02 1.323448006095152904e-06
7.064585194521280300e+02 1.104062038958248885e-06
7.242127903119096572e+02 8.994036561045358773e-07
7.424132503322480261e+02 7.329848373352334717e-07
7.610711128582923948e+02 5.976062210755061238e-07
7.801978730419201611e+02 4.818787294539528221e-07
7.998053149239348159e+02 3.830797283477011278e-07
8.199055186942368891e+02 2.966556973651692102e-07
8.405108681344507886e+02 2.297413926687748220e-07
8.616340582476112786e+02 1.779298554125143189e-07
8.832881030795794004e+02 1.378102141919140249e-07
9.054863437370200927e+02 1.066048427951752641e-07
9.282424566068992817e+02 8.172411169944435497e-08
9.515704617825323339e+02 6.265072108783000109e-08
9.754847317013898191e+02 4.802910836305616926e-08
