Energy(MeV)  SpectralFluence(cm^-2 MeV^-1)
5.000000e-02 3.152568e+10
5.168383e-02 3.056368e+10
5.342437e-02 2.962230e+10
5.522353e-02 2.874474e+10
5.708327e-02 2.787243e+10
5.900565e-02 2.704003e+10
6.099276e-02 2.620959e+10
6.304680e-02 2.541283e+10
6.517000e-02 2.464613e+10
6.736471e-02 2.390009e+10
6.963333e-02 2.318143e+10
7.197835e-02 2.247406e+10
7.440234e-02 2.180100e+10
7.690796e-02 2.115295e+10
7.949797e-02 2.050875e+10
8.217519e-02 1.990232e+10
8.494258e-02 1.928984e+10
8.780317e-02 1.872707e+10
9.076008e-02 1.816191e+10
9.381658e-02 1.760045e+10
9.697601e-02 1.706812e+10
1.002418e-01 1.654876e+10
1.036177e-01 1.606202e+10
1.071072e-01 1.559251e+10
1.107142e-01 1.512054e+10
1.144426e-01 1.467189e+10
1.182967e-01 1.423831e+10
1.222805e-01 1.380849e+10
1.263985e-01 1.339231e+10
1.306552e-01 1.298714e+10
1.350553e-01 1.259852e+10
1.396035e-01 1.222466e+10
1.443048e-01 1.184368e+10
1.491646e-01 1.147936e+10
1.541879e-01 1.113470e+10
1.593805e-01 1.078716e+10
1.647479e-01 1.045515e+10
1.702960e-01 1.013737e+10
1.760310e-01 9.835391e+09
1.819592e-01 9.543887e+09
1.880869e-01 9.234906e+09
1.944211e-01 8.952397e+09
2.009685e-01 8.679634e+09
2.077365e-01 8.410933e+09
2.147324e-01 8.144237e+09
2.219638e-01 7.895707e+09
2.294388e-01 7.651600e+09
2.371656e-01 7.413924e+09
2.451525e-01 7.188145e+09
2.534084e-01 6.971878e+09
2.619424e-01 6.762757e+09
2.707637e-01 6.554889e+09
2.798822e-01 6.351634e+09
2.893077e-01 6.153298e+09
2.990506e-01 5.958925e+09
3.091216e-01 5.779120e+09
3.195318e-01 5.593323e+09
3.302926e-01 5.422741e+09
3.414157e-01 5.259065e+09
3.529135e-01 5.097333e+09
3.647984e-01 4.940290e+09
3.770836e-01 4.784623e+09
3.897825e-01 4.634437e+09
4.029091e-01 4.491426e+09
4.164778e-01 4.354908e+09
4.305033e-01 4.222999e+09
4.450013e-01 4.089040e+09
4.599874e-01 3.962905e+09
4.754783e-01 3.844462e+09
4.914908e-01 3.724872e+09
5.080426e-01 3.610266e+09
5.251518e-01 3.497938e+09
5.428371e-01 3.390686e+09
5.611181e-01 3.284899e+09
5.800147e-01 3.181021e+09
5.995476e-01 3.081619e+09
6.197384e-01 2.983682e+09
6.406091e-01 2.886406e+09
6.621827e-01 2.795749e+09
6.844828e-01 2.710609e+09
7.075339e-01 2.623185e+09
7.313613e-01 2.538757e+09
7.559911e-01 2.458072e+09
7.814504e-01 2.379094e+09
8.077670e-01 2.302711e+09
8.349699e-01 2.231431e+09
8.630889e-01 2.158202e+09
8.921549e-01 2.087868e+09
9.221997e-01 2.020845e+09
9.532563e-01 1.956517e+09
9.853588e-01 1.891496e+09
1.018542e+00 1.830586e+09
1.052844e+00 1.771623e+09
1.088300e+00 1.715158e+09
1.124950e+00 1.659944e+09
1.162835e+00 1.607161e+09
1.201995e+00 1.553404e+09
1.242474e+00 1.502857e+09
1.284317e+00 1.455225e+09
1.327568e+00 1.406874e+09
1.372276e+00 1.360168e+09
1.418490e+00 1.315138e+09
1.466260e+00 1.271178e+09
1.515639e+00 1.229337e+09
1.566680e+00 1.189436e+09
1.619441e+00 1.150736e+09
1.673978e+00 1.111447e+09
1.730352e+00 1.074945e+09
1.788625e+00 1.038824e+09
1.848860e+00 1.004369e+09
1.911123e+00 9.709377e+08
1.975484e+00 9.384528e+08
2.042011e+00 9.061696e+08
2.110780e+00 8.755031e+08
2.181864e+00 8.452981e+08
2.255341e+00 8.157075e+08
2.331294e+00 7.876831e+08
2.409804e+00 7.604977e+08
2.490958e+00 7.342770e+08
2.574845e+00 7.081741e+08
2.661558e+00 6.827329e+08
2.751190e+00 6.582710e+08
2.843841e+00 6.351412e+08
2.939612e+00 6.121329e+08
3.038609e+00 5.897054e+08
3.140939e+00 5.683985e+08
3.246715e+00 5.476868e+08
3.356054e+00 5.274978e+08
3.469074e+00 5.082478e+08
3.585901e+00 4.896531e+08
3.706663e+00 4.707962e+08
3.831491e+00 4.528417e+08
3.960522e+00 4.355965e+08
4.093900e+00 4.194124e+08
4.231769e+00 4.032419e+08
4.374280e+00 3.875404e+08
4.521592e+00 3.724562e+08
4.673864e+00 3.572502e+08
4.831264e+00 3.429716e+08
4.993965e+00 3.291564e+08
5.162145e+00 3.161107e+08
5.335989e+00 3.034115e+08
5.515687e+00 2.909165e+08
5.701437e+00 2.790805e+08
5.893443e+00 2.671923e+08
6.091914e+00 2.558832e+08
6.297070e+00 2.448408e+08
6.509134e+00 2.344821e+08
6.728340e+00 2.242939e+08
6.954928e+00 2.143819e+08
7.189147e+00 2.048512e+08
7.431253e+00 1.955186e+08
7.681513e+00 1.865158e+08
7.940201e+00 1.777747e+08
8.207601e+00 1.693462e+08
8.484005e+00 1.612074e+08
8.769719e+00 1.533633e+08
9.065053e+00 1.457935e+08
9.370334e+00 1.385088e+08
9.685896e+00 1.316643e+08
1.001208e+01 1.250113e+08
1.034926e+01 1.186247e+08
1.069779e+01 1.124076e+08
1.105805e+01 1.065424e+08
1.143045e+01 1.008808e+08
1.181539e+01 9.534020e+07
1.221329e+01 9.012509e+07
1.262460e+01 8.515668e+07
1.304975e+01 8.025500e+07
1.348922e+01 7.568833e+07
1.394350e+01 7.121747e+07
1.441307e+01 6.700308e+07
1.489845e+01 6.296574e+07
1.540018e+01 5.907991e+07
1.591881e+01 5.528822e+07
1.645490e+01 5.188121e+07
1.700905e+01 4.847768e+07
1.758185e+01 4.528381e+07
1.817395e+01 4.223364e+07
1.878599e+01 3.945107e+07
1.941864e+01 3.665142e+07
2.007260e+01 3.410625e+07
2.074857e+01 3.167417e+07
2.144732e+01 2.934597e+07
2.216959e+01 2.716039e+07
2.291619e+01 2.509762e+07
2.368793e+01 2.320060e+07
2.448566e+01 2.142019e+07
2.531026e+01 1.973836e+07
2.616262e+01 1.815183e+07
2.704369e+01 1.659479e+07
2.795443e+01 1.523698e+07
2.889585e+01 1.393259e+07
2.986896e+01 1.276423e+07
3.087485e+01 1.160864e+07
3.191461e+01 1.057639e+07
3.298939e+01 9.596732e+06
3.410036e+01 8.695767e+06
3.524875e+01 7.861045e+06
3.643581e+01 7.094572e+06
3.766285e+01 6.397546e+06
3.893121e+01 5.751606e+06
4.024228e+01 5.150773e+06
4.159751e+01 4.608529e+06
4.299837e+01 4.129353e+06
4.444641e+01 3.691531e+06
4.594322e+01 3.297120e+06
4.749044e+01 2.934540e+06
4.908976e+01 2.621083e+06
5.074294e+01 2.334228e+06
5.245179e+01 2.071855e+06
5.421819e+01 1.841545e+06
5.604408e+01 1.630268e+06
5.793146e+01 1.449237e+06
5.988240e+01 1.282405e+06
6.189904e+01 1.139712e+06
6.398359e+01 1.005443e+06
6.613834e+01 8.905199e+05
6.836566e+01 7.913540e+05
7.066799e+01 7.015202e+05
7.304785e+01 6.196771e+05
7.550786e+01 5.473759e+05
7.805072e+01 4.839403e+05
8.067920e+01 4.271399e+05
8.339621e+01 3.769504e+05
8.620472e+01 3.312496e+05
8.910781e+01 2.934899e+05
9.210866e+01 2.600777e+05
9.521057e+01 2.299948e+05
9.841695e+01 2.032044e+05
1.017313e+02 1.798469e+05
1.051573e+02 1.593277e+05
1.086986e+02 1.401909e+05
1.123592e+02 1.239954e+05
1.161431e+02 1.097131e+05
1.200544e+02 9.691639e+04
1.240975e+02 8.533083e+04
1.282767e+02 7.533846e+04
1.325966e+02 6.670403e+04
1.370620e+02 5.932348e+04
1.416778e+02 5.268153e+04
1.464490e+02 4.650128e+04
1.513809e+02 4.097576e+04
1.564789e+02 3.608813e+04
1.617486e+02 3.191334e+04
1.671958e+02 2.811583e+04
1.728264e+02 2.485386e+04
1.786466e+02 2.202278e+04
1.846628e+02 1.943958e+04
1.908817e+02 1.718148e+04
1.973099e+02 1.518482e+04
2.039547e+02 1.347809e+04
2.108232e+02 1.193494e+04
2.179230e+02 1.051655e+04
2.252619e+02 9.311611e+03
2.328480e+02 8.227553e+03
2.406895e+02 7.243288e+03
2.487952e+02 6.382881e+03
2.571738e+02 5.609300e+03
2.658345e+02 4.953608e+03
2.747869e+02 4.373313e+03
2.840408e+02 3.860500e+03
2.936064e+02 3.411967e+03
3.034941e+02 3.029543e+03
3.137148e+02 2.686084e+03
3.242796e+02 2.373417e+03
3.352003e+02 2.104926e+03
3.464887e+02 1.867476e+03
3.581573e+02 1.657240e+03
3.702189e+02 1.468444e+03
3.826866e+02 1.303819e+03
3.955742e+02 1.152322e+03
4.088958e+02 1.016898e+03
4.226661e+02 8.977598e+02
4.369001e+02 7.959166e+02
4.516134e+02 7.055471e+02
4.668222e+02 6.252321e+02
4.825433e+02 5.529886e+02
4.987937e+02 4.894107e+02
5.155914e+02 4.342228e+02
5.329548e+02 3.868236e+02
5.509030e+02 3.437351e+02
5.694556e+02 3.042967e+02
5.886329e+02 2.697616e+02
6.084561e+02 2.402280e+02
6.289469e+02 2.139199e+02
6.501277e+02 1.895708e+02
6.720219e+02 1.676673e+02
6.946533e+02 1.480694e+02
7.180470e+02 1.307420e+02
7.422284e+02 1.154239e+02
7.672242e+02 1.018838e+02
7.930617e+02 8.991666e+01
8.197694e+02 7.934121e+01
8.473765e+02 7.007297e+01
8.759133e+02 6.200741e+01
9.054112e+02 5.474445e+01
9.359024e+02 4.838922e+01
9.674205e+02 4.280195e+01
1.000000e+03 3.794058e+01
