Energy(MeV)  Phi_16(cm^-2 MeV^-1)  Phi_84(cm^-2 MeV^-1)
5.000000e-02 2.579930e+10 3.924021e+10
5.168383e-02 2.507842e+10 3.795676e+10
5.342437e-02 2.436916e+10 3.670730e+10
5.522353e-02 2.368056e+10 3.552422e+10
5.708327e-02 2.301321e+10 3.440142e+10
5.900565e-02 2.235800e+10 3.329556e+10
6.099276e-02 2.171982e+10 3.219835e+10
6.304680e-02 2.110421e+10 3.117972e+10
6.517000e-02 2.049143e+10 3.019571e+10
6.736471e-02 1.990975e+10 2.923045e+10
6.963333e-02 1.935477e+10 2.829636e+10
7.197835e-02 1.882192e+10 2.738065e+10
7.440234e-02 1.829489e+10 2.645826e+10
7.690796e-02 1.774844e+10 2.558529e+10
7.949797e-02 1.725752e+10 2.475157e+10
8.217519e-02 1.677219e+10 2.398681e+10
8.494258e-02 1.629781e+10 2.322357e+10
8.780317e-02 1.581683e+10 2.245392e+10
9.076008e-02 1.533968e+10 2.170584e+10
9.381658e-02 1.489331e+10 2.102413e+10
9.697601e-02 1.446991e+10 2.035220e+10
1.002418e-01 1.404030e+10 1.971994e+10
1.036177e-01 1.364969e+10 1.908568e+10
1.071072e-01 1.326551e+10 1.847001e+10
1.107142e-01 1.289685e+10 1.785393e+10
1.144426e-01 1.251796e+10 1.726633e+10
1.182967e-01 1.216006e+10 1.672260e+10
1.222805e-01 1.180775e+10 1.620084e+10
1.263985e-01 1.145856e+10 1.567779e+10
1.306552e-01 1.112046e+10 1.517088e+10
1.350553e-01 1.081283e+10 1.468717e+10
1.396035e-01 1.050454e+10 1.422693e+10
1.443048e-01 1.020004e+10 1.378349e+10
1.491646e-01 9.903345e+09 1.332279e+10
1.541879e-01 9.601958e+09 1.289984e+10
1.593805e-01 9.328596e+09 1.246824e+10
1.647479e-01 9.059060e+09 1.207482e+10
1.702960e-01 8.800831e+09 1.167606e+10
1.760310e-01 8.541146e+09 1.130067e+10
1.819592e-01 8.295197e+09 1.092824e+10
1.880869e-01 8.051989e+09 1.058447e+10
1.944211e-01 7.813231e+09 1.024923e+10
2.009685e-01 7.576246e+09 9.923261e+09
2.077365e-01 7.357134e+09 9.625228e+09
2.147324e-01 7.138715e+09 9.314289e+09
2.219638e-01 6.922652e+09 9.007209e+09
2.294388e-01 6.716092e+09 8.721119e+09
2.371656e-01 6.530558e+09 8.440854e+09
2.451525e-01 6.340052e+09 8.167695e+09
2.534084e-01 6.152851e+09 7.904594e+09
2.619424e-01 5.971662e+09 7.660676e+09
2.707637e-01 5.790982e+09 7.408312e+09
2.798822e-01 5.616306e+09 7.179751e+09
2.893077e-01 5.453474e+09 6.957099e+09
2.990506e-01 5.293856e+09 6.739457e+09
3.091216e-01 5.140103e+09 6.524787e+09
3.195318e-01 4.986528e+09 6.312424e+09
3.302926e-01 4.827555e+09 6.109381e+09
3.414157e-01 4.677009e+09 5.912972e+09
3.529135e-01 4.537433e+09 5.718955e+09
3.647984e-01 4.406911e+09 5.535209e+09
3.770836e-01 4.269598e+09 5.356576e+09
3.897825e-01 4.141858e+09 5.180216e+09
4.029091e-01 4.022018e+09 5.008776e+09
4.164778e-01 3.902027e+09 4.851653e+09
4.305033e-01 3.784117e+09 4.691575e+09
4.450013e-01 3.664483e+09 4.542395e+09
4.599874e-01 3.550452e+09 4.397784e+09
4.754783e-01 3.444064e+09 4.265935e+09
4.914908e-01 3.340495e+09 4.128918e+09
5.080426e-01 3.239426e+09 4.001380e+09
5.251518e-01 3.141146e+09 3.872244e+09
5.428371e-01 3.043218e+09 3.754435e+09
5.611181e-01 2.949711e+09 3.638416e+09
5.800147e-01 2.858702e+09 3.522122e+09
5.995476e-01 2.769000e+09 3.410722e+09
6.197384e-01 2.683285e+09 3.304970e+09
6.406091e-01 2.597658e+09 3.201518e+09
6.621827e-01 2.514060e+09 3.096088e+09
6.844828e-01 2.434596e+09 2.999083e+09
7.075339e-01 2.359251e+09 2.905325e+09
7.313613e-01 2.283274e+09 2.812270e+09
7.559911e-01 2.208496e+09 2.721104e+09
7.814504e-01 2.136101e+09 2.640687e+09
8.077670e-01 2.065617e+09 2.554162e+09
8.349699e-01 1.999254e+09 2.471655e+09
8.630889e-01 1.933269e+09 2.394585e+09
8.921549e-01 1.873076e+09 2.317792e+09
9.221997e-01 1.814463e+09 2.247947e+09
9.532563e-01 1.755747e+09 2.174982e+09
9.853588e-01 1.698631e+09 2.105426e+09
1.018542e+00 1.642328e+09 2.037648e+09
1.052844e+00 1.586939e+09 1.974091e+09
1.088300e+00 1.534148e+09 1.911461e+09
1.124950e+00 1.482624e+09 1.852817e+09
1.162835e+00 1.432929e+09 1.795382e+09
1.201995e+00 1.384100e+09 1.735036e+09
1.242474e+00 1.337290e+09 1.678791e+09
1.284317e+00 1.292663e+09 1.622859e+09
1.327568e+00 1.250143e+09 1.569661e+09
1.372276e+00 1.208834e+09 1.518087e+09
1.418490e+00 1.168569e+09 1.469844e+09
1.466260e+00 1.129639e+09 1.421617e+09
1.515639e+00 1.090564e+09 1.375651e+09
1.566680e+00 1.053145e+09 1.329594e+09
1.619441e+00 1.016800e+09 1.285349e+09
1.673978e+00 9.823356e+08 1.242057e+09
1.730352e+00 9.490948e+08 1.201145e+09
1.788625e+00 9.159478e+08 1.162039e+09
1.848860e+00 8.843184e+08 1.124740e+09
1.911123e+00 8.530749e+08 1.086099e+09
1.975484e+00 8.232524e+08 1.049656e+09
2.042011e+00 7.939013e+08 1.014902e+09
2.110780e+00 7.653087e+08 9.812590e+08
2.181864e+00 7.385162e+08 9.473948e+08
2.255341e+00 7.125267e+08 9.146662e+08
2.331294e+00 6.872909e+08 8.826709e+08
2.409804e+00 6.610399e+08 8.522942e+08
2.490958e+00 6.362235e+08 8.230449e+08
2.574845e+00 6.124153e+08 7.944860e+08
2.661558e+00 5.906520e+08 7.665435e+08
2.751190e+00 5.693664e+08 7.400422e+08
2.843841e+00 5.492417e+08 7.138394e+08
2.939612e+00 5.287238e+08 6.878904e+08
3.038609e+00 5.094490e+08 6.629333e+08
3.140939e+00 4.898131e+08 6.392168e+08
3.246715e+00 4.705746e+08 6.158572e+08
3.356054e+00 4.518114e+08 5.941682e+08
3.469074e+00 4.344353e+08 5.729450e+08
3.585901e+00 4.175880e+08 5.516383e+08
3.706663e+00 4.013432e+08 5.315204e+08
3.831491e+00 3.859012e+08 5.120804e+08
3.960522e+00 3.712722e+08 4.927226e+08
4.093900e+00 3.566010e+08 4.741265e+08
4.231769e+00 3.426516e+08 4.566398e+08
4.374280e+00 3.287913e+08 4.384530e+08
4.521592e+00 3.157770e+08 4.214793e+08
4.673864e+00 3.030391e+08 4.051881e+08
4.831264e+00 2.908464e+08 3.890645e+08
4.993965e+00 2.789913e+08 3.735546e+08
5.162145e+00 2.676529e+08 3.579286e+08
5.335989e+00 2.565849e+08 3.431234e+08
5.515687e+00 2.459960e+08 3.293075e+08
5.701437e+00 2.356220e+08 3.160342e+08
5.893443e+00 2.256107e+08 3.028493e+08
6.091914e+00 2.160270e+08 2.902960e+08
6.297070e+00 2.065985e+08 2.782885e+08
6.509134e+00 1.975269e+08 2.663292e+08
6.728340e+00 1.887293e+08 2.550986e+08
6.954928e+00 1.801590e+08 2.441198e+08
7.189147e+00 1.718785e+08 2.330062e+08
7.431253e+00 1.639376e+08 2.225815e+08
7.681513e+00 1.562874e+08 2.123024e+08
7.940201e+00 1.490878e+08 2.022353e+08
8.207601e+00 1.423985e+08 1.924664e+08
8.484005e+00 1.357394e+08 1.833149e+08
8.769719e+00 1.293807e+08 1.745063e+08
9.065053e+00 1.231256e+08 1.660469e+08
9.370334e+00 1.171814e+08 1.580348e+08
9.685896e+00 1.114192e+08 1.502882e+08
1.001208e+01 1.059594e+08 1.428892e+08
1.034926e+01 1.006100e+08 1.355392e+08
1.069779e+01 9.542501e+07 1.283912e+08
1.105805e+01 9.032102e+07 1.217447e+08
1.143045e+01 8.566603e+07 1.152716e+08
1.181539e+01 8.113623e+07 1.089314e+08
1.221329e+01 7.667617e+07 1.028617e+08
1.262460e+01 7.244478e+07 9.729286e+07
1.304975e+01 6.838397e+07 9.183857e+07
1.348922e+01 6.455949e+07 8.659167e+07
1.394350e+01 6.076071e+07 8.171089e+07
1.441307e+01 5.719167e+07 7.675827e+07
1.489845e+01 5.385340e+07 7.213025e+07
1.540018e+01 5.064535e+07 6.789408e+07
1.591881e+01 4.748427e+07 6.367596e+07
1.645490e+01 4.446025e+07 5.962596e+07
1.700905e+01 4.165597e+07 5.582158e+07
1.758185e+01 3.891377e+07 5.209275e+07
1.817395e+01 3.633115e+07 4.871646e+07
1.878599e+01 3.392812e+07 4.545759e+07
1.941864e+01 3.161325e+07 4.236041e+07
2.007260e+01 2.934610e+07 3.942776e+07
2.074857e+01 2.720421e+07 3.659861e+07
2.144732e+01 2.513509e+07 3.404131e+07
2.216959e+01 2.325804e+07 3.165641e+07
2.291619e+01 2.141787e+07 2.935466e+07
2.368793e+01 1.978350e+07 2.709077e+07
2.448566e+01 1.824322e+07 2.500910e+07
2.531026e+01 1.675413e+07 2.305965e+07
2.616262e+01 1.539121e+07 2.118374e+07
2.704369e+01 1.413855e+07 1.945242e+07
2.795443e+01 1.291460e+07 1.786210e+07
2.889585e+01 1.176571e+07 1.637729e+07
2.986896e+01 1.067684e+07 1.493832e+07
3.087485e+01 9.727343e+06 1.364055e+07
3.191461e+01 8.855064e+06 1.244145e+07
3.298939e+01 8.023404e+06 1.133802e+07
3.410036e+01 7.233733e+06 1.028773e+07
3.524875e+01 6.513991e+06 9.320467e+06
3.643581e+01 5.858312e+06 8.450827e+06
3.766285e+01 5.240028e+06 7.634159e+06
3.893121e+01 4.672352e+06 6.887044e+06
4.024228e+01 4.171189e+06 6.180231e+06
4.159751e+01 3.729212e+06 5.563821e+06
4.299837e+01 3.318452e+06 5.000171e+06
4.444641e+01 2.960040e+06 4.477508e+06
4.594322e+01 2.641217e+06 4.007067e+06
4.749044e+01 2.351611e+06 3.562046e+06
4.908976e+01 2.094789e+06 3.190838e+06
5.074294e+01 1.855107e+06 2.842920e+06
5.245179e+01 1.652254e+06 2.537841e+06
5.421819e+01 1.473306e+06 2.250764e+06
5.604408e+01 1.304486e+06 1.999465e+06
5.793146e+01 1.148126e+06 1.788301e+06
5.988240e+01 1.013914e+06 1.586966e+06
6.189904e+01 8.911705e+05 1.402997e+06
6.398359e+01 7.857386e+05 1.243519e+06
6.613834e+01 6.938481e+05 1.106444e+06
6.836566e+01 6.124321e+05 9.828609e+05
7.066799e+01 5.373363e+05 8.743282e+05
7.304785e+01 4.713435e+05 7.782728e+05
7.550786e+01 4.146818e+05 6.916925e+05
7.805072e+01 3.633180e+05 6.171892e+05
8.067920e+01 3.187545e+05 5.501753e+05
8.339621e+01 2.795519e+05 4.905171e+05
8.620472e+01 2.452561e+05 4.382631e+05
8.910781e+01 2.140591e+05 3.921429e+05
9.210866e+01 1.876145e+05 3.508568e+05
9.521057e+01 1.642767e+05 3.145471e+05
9.841695e+01 1.439337e+05 2.831630e+05
1.017313e+02 1.264024e+05 2.530944e+05
1.051573e+02 1.108206e+05 2.268607e+05
1.086986e+02 9.683997e+04 2.034971e+05
1.123592e+02 8.461927e+04 1.825655e+05
1.161431e+02 7.438115e+04 1.635242e+05
1.200544e+02 6.512682e+04 1.466891e+05
1.240975e+02 5.661573e+04 1.318754e+05
1.282767e+02 4.941989e+04 1.186972e+05
1.325966e+02 4.323656e+04 1.063630e+05
1.370620e+02 3.787554e+04 9.516220e+04
1.416778e+02 3.303814e+04 8.561425e+04
1.464490e+02 2.888111e+04 7.672028e+04
1.513809e+02 2.536503e+04 6.881762e+04
1.564789e+02 2.224762e+04 6.155095e+04
1.617486e+02 1.940800e+04 5.505361e+04
1.671958e+02 1.696981e+04 4.925978e+04
1.728264e+02 1.484067e+04 4.413061e+04
1.786466e+02 1.296656e+04 3.966455e+04
1.846628e+02 1.129817e+04 3.559083e+04
1.908817e+02 9.882702e+03 3.198161e+04
1.973099e+02 8.616073e+03 2.873372e+04
2.039547e+02 7.514232e+03 2.592766e+04
2.108232e+02 6.580382e+03 2.330552e+04
2.179230e+02 5.753371e+03 2.099411e+04
2.252619e+02 4.993639e+03 1.888858e+04
2.328480e+02 4.345515e+03 1.689164e+04
2.406895e+02 3.787478e+03 1.516630e+04
2.487952e+02 3.315259e+03 1.356393e+04
2.571738e+02 2.880838e+03 1.218487e+04
2.658345e+02 2.528253e+03 1.097219e+04
2.747869e+02 2.197965e+03 9.875170e+03
2.840408e+02 1.915564e+03 8.891233e+03
2.936064e+02 1.667076e+03 7.999118e+03
3.034941e+02 1.457183e+03 7.224801e+03
3.137148e+02 1.281781e+03 6.475316e+03
3.242796e+02 1.115924e+03 5.818460e+03
3.352003e+02 9.710154e+02 5.232822e+03
3.464887e+02 8.466194e+02 4.700965e+03
3.581573e+02 7.381237e+02 4.222160e+03
3.702189e+02 6.457130e+02 3.792166e+03
3.826866e+02 5.647969e+02 3.406004e+03
3.955742e+02 4.901602e+02 3.059203e+03
4.088958e+02 4.295946e+02 2.750278e+03
4.226661e+02 3.746701e+02 2.474458e+03
4.369001e+02 3.268538e+02 2.226333e+03
4.516134e+02 2.849786e+02 2.003121e+03
4.668222e+02 2.479851e+02 1.817828e+03
4.825433e+02 2.167220e+02 1.632870e+03
4.987937e+02 1.889037e+02 1.466454e+03
5.155914e+02 1.651566e+02 1.316665e+03
5.329548e+02 1.440765e+02 1.181642e+03
5.509030e+02 1.255365e+02 1.060661e+03
5.694556e+02 1.096412e+02 9.526245e+02
5.886329e+02 9.572172e+01 8.556046e+02
6.084561e+02 8.356902e+01 7.684770e+02
6.289469e+02 7.278264e+01 6.904179e+02
6.501277e+02 6.367711e+01 6.225283e+02
6.720219e+02 5.560532e+01 5.613231e+02
6.946533e+02 4.854319e+01 5.061436e+02
7.180470e+02 4.237738e+01 4.563960e+02
7.422284e+02 3.685408e+01 4.111616e+02
7.672242e+02 3.206576e+01 3.700636e+02
7.930617e+02 2.795400e+01 3.323140e+02
8.197694e+02 2.438761e+01 2.981285e+02
8.473765e+02 2.122057e+01 2.674656e+02
8.759133e+02 1.843374e+01 2.416101e+02
9.054112e+02 1.604410e+01 2.170878e+02
9.359024e+02 1.397028e+01 1.950572e+02
9.674205e+02 1.214488e+01 1.752663e+02
1.000000e+03 1.055779e+01 1.574745e+02
