Energy(MeV)   SpectralFluence(cm^-2 MeV^-1)
5.000000e-02 9.994355e+10
5.168383e-02 9.691212e+10
5.342437e-02 9.397231e+10
5.522353e-02 9.112134e+10
5.708327e-02 8.835653e+10
5.900565e-02 8.567529e+10
6.099276e-02 8.307507e+10
6.304680e-02 8.055343e+10
6.517000e-02 7.810799e+10
6.736471e-02 7.573646e+10
6.963333e-02 7.343660e+10
7.197835e-02 7.120623e+10
7.440234e-02 6.904327e+10
7.690796e-02 6.694567e+10
7.949797e-02 6.491146e+10
8.217519e-02 6.293871e+10
8.494258e-02 6.102558e+10
8.780317e-02 5.917026e+10
9.076008e-02 5.737100e+10
9.381658e-02 5.562611e+10
9.697601e-02 5.393394e+10
1.002418e-01 5.229290e+10
1.036177e-01 5.070145e+10
1.071072e-01 4.915808e+10
1.107142e-01 4.766135e+10
1.144426e-01 4.620984e+10
1.182967e-01 4.480218e+10
1.222805e-01 4.343706e+10
1.263985e-01 4.211317e+10
1.306552e-01 4.082929e+10
1.350553e-01 3.958419e+10
1.396035e-01 3.837671e+10
1.443048e-01 3.720571e+10
1.491646e-01 3.607009e+10
1.541879e-01 3.496877e+10
1.593805e-01 3.390072e+10
1.647479e-01 3.286493e+10
1.702960e-01 3.186044e+10
1.760310e-01 3.088628e+10
1.819592e-01 2.994155e+10
1.880869e-01 2.902536e+10
1.944211e-01 2.813685e+10
2.009685e-01 2.727517e+10
2.077365e-01 2.643951e+10
2.147324e-01 2.562910e+10
2.219638e-01 2.484316e+10
2.294388e-01 2.408096e+10
2.371656e-01 2.334178e+10
2.451525e-01 2.262492e+10
2.534084e-01 2.192971e+10
2.619424e-01 2.125549e+10
2.707637e-01 2.060164e+10
2.798822e-01 1.996753e+10
2.893077e-01 1.935257e+10
2.990506e-01 1.875617e+10
3.091216e-01 1.817779e+10
3.195318e-01 1.761687e+10
3.302926e-01 1.707289e+10
3.414157e-01 1.654533e+10
3.529135e-01 1.603370e+10
3.647984e-01 1.553751e+10
3.770836e-01 1.505631e+10
3.897825e-01 1.458964e+10
4.029091e-01 1.413705e+10
4.164778e-01 1.369813e+10
4.305033e-01 1.327245e+10
4.450013e-01 1.285963e+10
4.599874e-01 1.245927e+10
4.754783e-01 1.207099e+10
4.914908e-01 1.169444e+10
5.080426e-01 1.132925e+10
5.251518e-01 1.097509e+10
5.428371e-01 1.063161e+10
5.611181e-01 1.029851e+10
5.800147e-01 9.975458e+09
5.995476e-01 9.662158e+09
6.197384e-01 9.358316e+09
6.406091e-01 9.063645e+09
6.621827e-01 8.777869e+09
6.844828e-01 8.500719e+09
7.075339e-01 8.231936e+09
7.313613e-01 7.971266e+09
7.559911e-01 7.718466e+09
7.814504e-01 7.473297e+09
8.077670e-01 7.235530e+09
8.349699e-01 7.004942e+09
8.630889e-01 6.781316e+09
8.921549e-01 6.564443e+09
9.221997e-01 6.354119e+09
9.532563e-01 6.150146e+09
9.853588e-01 5.952334e+09
1.018542e+00 5.760497e+09
1.052844e+00 5.574456e+09
1.088300e+00 5.394035e+09
1.124950e+00 5.219067e+09
1.162835e+00 5.049386e+09
1.201995e+00 4.884834e+09
1.242474e+00 4.725258e+09
1.284317e+00 4.570507e+09
1.327568e+00 4.420436e+09
1.372276e+00 4.274906e+09
1.418490e+00 4.133781e+09
1.466260e+00 3.996927e+09
1.515639e+00 3.864217e+09
1.566680e+00 3.735527e+09
1.619441e+00 3.610738e+09
1.673978e+00 3.489731e+09
1.730352e+00 3.372395e+09
1.788625e+00 3.258619e+09
1.848860e+00 3.148297e+09
1.911123e+00 3.041327e+09
1.975484e+00 2.937608e+09
2.042011e+00 2.837044e+09
2.110780e+00 2.739541e+09
2.181864e+00 2.645008e+09
2.255341e+00 2.553357e+09
2.331294e+00 2.464502e+09
2.409804e+00 2.378361e+09
2.490958e+00 2.294854e+09
2.574845e+00 2.213902e+09
2.661558e+00 2.135431e+09
2.751190e+00 2.059368e+09
2.843841e+00 1.985641e+09
2.939612e+00 1.914182e+09
3.038609e+00 1.844924e+09
3.140939e+00 1.777804e+09
3.246715e+00 1.712759e+09
3.356054e+00 1.649728e+09
3.469074e+00 1.588653e+09
3.585901e+00 1.529477e+09
3.706663e+00 1.472145e+09
3.831491e+00 1.416604e+09
3.960522e+00 1.362802e+09
4.093900e+00 1.310689e+09
4.231769e+00 1.260217e+09
4.374280e+00 1.211339e+09
4.521592e+00 1.164009e+09
4.673864e+00 1.118183e+09
4.831264e+00 1.073819e+09
4.993965e+00 1.030876e+09
5.162145e+00 9.893123e+08
5.335989e+00 9.490904e+08
5.515687e+00 9.101723e+08
5.701437e+00 8.725218e+08
5.893443e+00 8.361034e+08
6.091914e+00 8.008830e+08
6.297070e+00 7.668275e+08
6.509134e+00 7.339047e+08
6.728340e+00 7.020836e+08
6.954928e+00 6.713340e+08
7.189147e+00 6.416266e+08
7.431253e+00 6.129331e+08
7.681513e+00 5.852260e+08
7.940201e+00 5.584787e+08
8.207601e+00 5.326652e+08
8.484005e+00 5.077604e+08
8.769719e+00 4.837399e+08
9.065053e+00 4.605802e+08
9.370334e+00 4.382581e+08
9.685896e+00 4.167514e+08
1.001208e+01 3.960382e+08
1.034926e+01 3.760976e+08
1.069779e+01 3.569089e+08
1.105805e+01 3.384521e+08
1.143045e+01 3.207077e+08
1.181539e+01 3.036568e+08
1.221329e+01 2.872807e+08
1.262460e+01 2.715614e+08
1.304975e+01 2.564812e+08
1.348922e+01 2.420229e+08
1.394350e+01 2.281695e+08
1.441307e+01 2.149046e+08
1.489845e+01 2.022119e+08
1.540018e+01 1.900756e+08
1.591881e+01 1.784801e+08
1.645490e+01 1.674100e+08
1.700905e+01 1.568503e+08
1.758185e+01 1.467863e+08
1.817395e+01 1.372034e+08
1.878599e+01 1.280872e+08
1.941864e+01 1.194235e+08
2.007260e+01 1.111984e+08
2.074857e+01 1.033981e+08
2.144732e+01 9.600899e+07
2.216959e+01 8.901757e+07
2.291619e+01 8.241053e+07
2.368793e+01 7.617469e+07
2.448566e+01 7.029701e+07
2.531026e+01 6.476457e+07
2.616262e+01 5.956460e+07
2.704369e+01 5.468444e+07
2.795443e+01 5.011158e+07
2.889585e+01 4.583362e+07
2.986896e+01 4.183830e+07
3.087485e+01 3.811350e+07
3.191461e+01 3.464727e+07
3.298939e+01 3.142776e+07
3.410036e+01 2.844334e+07
3.524875e+01 2.568250e+07
3.643581e+01 2.313394e+07
3.766285e+01 2.078655e+07
3.893121e+01 1.862941e+07
4.024228e+01 1.665185e+07
4.159751e+01 1.484340e+07
4.299837e+01 1.319387e+07
4.444641e+01 1.169336e+07
4.594322e+01 1.034981e+07
4.749044e+01 9.160539e+06
4.908976e+01 8.107842e+06
5.074294e+01 7.176039e+06
5.245179e+01 6.351255e+06
5.421819e+01 5.621203e+06
5.604408e+01 4.975008e+06
5.793146e+01 4.403044e+06
5.988240e+01 3.896787e+06
6.189904e+01 3.448694e+06
6.398359e+01 3.052086e+06
6.613834e+01 2.701051e+06
6.836566e+01 2.390355e+06
7.066799e+01 2.115366e+06
7.304785e+01 1.871983e+06
7.550786e+01 1.656576e+06
7.805072e+01 1.465932e+06
8.067920e+01 1.297205e+06
8.339621e+01 1.147878e+06
8.620472e+01 1.015722e+06
8.910781e+01 8.987645e+05
9.210866e+01 7.952587e+05
9.521057e+01 7.036588e+05
9.841695e+01 6.225966e+05
1.017313e+02 5.508610e+05
1.051573e+02 4.873799e+05
1.086986e+02 4.312043e+05
1.123592e+02 3.814945e+05
1.161431e+02 3.375070e+05
1.200544e+02 2.985838e+05
1.240975e+02 2.641424e+05
1.282767e+02 2.336675e+05
1.325966e+02 2.067027e+05
1.370620e+02 1.828443e+05
1.416778e+02 1.617349e+05
1.464490e+02 1.430581e+05
1.513809e+02 1.265340e+05
1.564789e+02 1.119148e+05
1.617486e+02 9.898126e+04
1.671958e+02 8.753928e+04
1.728264e+02 7.741713e+04
1.786466e+02 6.846280e+04
1.846628e+02 6.054179e+04
1.908817e+02 5.353505e+04
1.973099e+02 4.733725e+04
2.039547e+02 4.185516e+04
2.108232e+02 3.700629e+04
2.179230e+02 3.271764e+04
2.252619e+02 2.892462e+04
2.328480e+02 2.557007e+04
2.406895e+02 2.260341e+04
2.487952e+02 1.997989e+04
2.571738e+02 1.765991e+04
2.658345e+02 1.560843e+04
2.747869e+02 1.379447e+04
2.840408e+02 1.219058e+04
2.936064e+02 1.077250e+04
3.034941e+02 9.518770e+03
3.137148e+02 8.410392e+03
3.242796e+02 7.430563e+03
3.352003e+02 6.564419e+03
3.464887e+02 5.798811e+03
3.581573e+02 5.122106e+03
3.702189e+02 4.524015e+03
3.826866e+02 3.995437e+03
3.955742e+02 3.528320e+03
4.088958e+02 3.115545e+03
4.226661e+02 2.750813e+03
4.369001e+02 2.428555e+03
4.516134e+02 2.143843e+03
4.668222e+02 1.892323e+03
4.825433e+02 1.670140e+03
4.987937e+02 1.473888e+03
5.155914e+02 1.300555e+03
5.329548e+02 1.147476e+03
5.509030e+02 1.012297e+03
5.694556e+02 8.929341e+02
5.886329e+02 7.875477e+02
6.084561e+02 6.945095e+02
6.289469e+02 6.123807e+02
6.501277e+02 5.398895e+02
6.720219e+02 4.759117e+02
6.946533e+02 4.194534e+02
7.180470e+02 3.696366e+02
7.422284e+02 3.256850e+02
7.672242e+02 2.869127e+02
7.930617e+02 2.527136e+02
8.197694e+02 2.225523e+02
8.473765e+02 1.959554e+02
8.759133e+02 1.725050e+02
9.054112e+02 1.518318e+02
9.359024e+02 1.336095e+02
9.674205e+02 1.175501e+02
1.000000e+03 1.033990e+02
