# Energy(MeV) Planare_Fluence(cm^-2*MeV^-1)
5.000000e-01 7.561553e+08
5.076744e-01 7.335813e+08
5.154667e-01 7.115971e+08
5.233785e-01 6.902714e+08
5.314118e-01 6.695845e+08
5.395683e-01 6.496440e+08
5.478501e-01 6.303869e+08
5.562590e-01 6.117003e+08
5.647969e-01 5.936368e+08
5.734659e-01 5.760255e+08
5.822680e-01 5.591622e+08
5.912051e-01 5.428516e+08
6.002795e-01 5.267425e+08
6.094931e-01 5.110227e+08
6.188481e-01 4.957792e+08
6.283467e-01 4.810368e+08
6.379911e-01 4.668126e+08
6.477836e-01 4.529910e+08
6.577263e-01 4.395841e+08
6.678217e-01 4.264662e+08
6.780720e-01 4.136658e+08
6.884796e-01 4.013269e+08
6.990470e-01 3.894471e+08
7.097766e-01 3.777463e+08
7.206709e-01 3.663774e+08
7.317324e-01 3.554371e+08
7.429636e-01 3.449284e+08
7.543673e-01 3.348116e+08
7.659460e-01 3.250202e+08
7.777024e-01 3.153399e+08
7.896392e-01 3.060021e+08
8.017593e-01 2.970001e+08
8.140654e-01 2.882627e+08
8.265604e-01 2.796802e+08
8.392472e-01 2.714336e+08
8.521287e-01 2.632737e+08
8.652079e-01 2.553544e+08
8.784878e-01 2.477910e+08
8.919716e-01 2.403906e+08
9.056624e-01 2.332585e+08
9.195633e-01 2.263034e+08
9.336776e-01 2.196536e+08
9.480084e-01 2.132230e+08
9.625593e-01 2.069600e+08
9.773335e-01 2.008693e+08
9.923345e-01 1.948913e+08
1.007566e+00 1.890481e+08
1.023031e+00 1.834399e+08
1.038733e+00 1.779843e+08
1.054676e+00 1.726943e+08
1.070865e+00 1.675835e+08
1.087301e+00 1.626278e+08
1.103990e+00 1.578106e+08
1.120935e+00 1.531240e+08
1.138140e+00 1.485996e+08
1.155609e+00 1.442310e+08
1.173346e+00 1.400065e+08
1.191356e+00 1.358926e+08
1.209642e+00 1.318695e+08
1.228209e+00 1.279444e+08
1.247060e+00 1.241291e+08
1.266201e+00 1.204322e+08
1.285636e+00 1.168904e+08
1.305369e+00 1.134341e+08
1.325405e+00 1.100617e+08
1.345748e+00 1.067538e+08
1.366404e+00 1.035719e+08
1.387377e+00 1.004860e+08
1.408672e+00 9.750268e+07
1.430293e+00 9.459121e+07
1.452247e+00 9.178115e+07
1.474537e+00 8.898538e+07
1.497169e+00 8.631300e+07
1.520149e+00 8.368507e+07
1.543482e+00 8.121431e+07
1.567172e+00 7.880637e+07
1.591227e+00 7.645951e+07
1.615650e+00 7.417927e+07
1.640449e+00 7.194183e+07
1.665628e+00 6.978203e+07
1.691193e+00 6.766274e+07
1.717151e+00 6.563782e+07
1.743508e+00 6.366852e+07
1.770268e+00 6.173133e+07
1.797440e+00 5.990398e+07
1.825029e+00 5.815389e+07
1.853041e+00 5.642082e+07
1.881483e+00 5.474573e+07
1.910362e+00 5.309361e+07
1.939683e+00 5.148150e+07
1.969455e+00 4.993891e+07
1.999684e+00 4.843911e+07
2.030377e+00 4.700216e+07
2.061541e+00 4.562302e+07
2.093184e+00 4.426705e+07
2.125312e+00 4.290054e+07
2.157933e+00 4.163691e+07
2.191055e+00 4.040767e+07
2.224685e+00 3.919667e+07
2.258831e+00 3.801936e+07
2.293502e+00 3.689043e+07
2.328704e+00 3.580661e+07
2.364447e+00 3.473757e+07
2.400739e+00 3.370582e+07
2.437588e+00 3.268873e+07
2.475002e+00 3.170645e+07
2.512990e+00 3.075853e+07
2.551562e+00 2.985133e+07
2.590725e+00 2.896110e+07
2.630490e+00 2.810535e+07
2.670865e+00 2.726236e+07
2.711860e+00 2.644285e+07
2.753484e+00 2.566847e+07
2.795747e+00 2.492006e+07
2.838658e+00 2.416348e+07
2.882229e+00 2.344929e+07
2.926468e+00 2.275361e+07
2.971386e+00 2.207288e+07
3.016993e+00 2.141668e+07
3.063300e+00 2.078005e+07
3.110319e+00 2.016294e+07
3.158058e+00 1.955811e+07
3.206531e+00 1.897545e+07
3.255748e+00 1.839595e+07
3.305720e+00 1.784355e+07
3.356459e+00 1.730878e+07
3.407977e+00 1.678411e+07
3.460285e+00 1.627665e+07
3.513397e+00 1.579649e+07
3.567323e+00 1.532811e+07
3.622078e+00 1.488335e+07
3.677673e+00 1.444689e+07
3.734121e+00 1.401404e+07
3.791435e+00 1.360006e+07
3.849630e+00 1.319182e+07
3.908717e+00 1.279815e+07
3.968711e+00 1.241644e+07
4.029627e+00 1.204440e+07
4.091477e+00 1.167862e+07
4.154276e+00 1.132141e+07
4.218040e+00 1.097317e+07
4.282782e+00 1.064397e+07
4.348518e+00 1.032438e+07
4.415263e+00 1.002087e+07
4.483032e+00 9.716471e+06
4.551842e+00 9.427337e+06
4.621707e+00 9.146390e+06
4.692645e+00 8.872098e+06
4.764672e+00 8.604210e+06
4.837804e+00 8.349546e+06
4.912059e+00 8.100775e+06
4.987454e+00 7.859369e+06
5.064006e+00 7.622563e+06
5.141732e+00 7.395395e+06
5.220652e+00 7.176670e+06
5.300783e+00 6.958751e+06
5.382144e+00 6.747044e+06
5.464754e+00 6.542370e+06
5.548632e+00 6.346069e+06
5.633797e+00 6.157759e+06
5.720270e+00 5.971064e+06
5.808069e+00 5.787910e+06
5.897217e+00 5.612937e+06
5.987732e+00 5.445993e+06
6.079637e+00 5.288291e+06
6.172953e+00 5.129183e+06
6.267701e+00 4.974018e+06
6.363903e+00 4.822646e+06
6.461581e+00 4.677796e+06
6.560759e+00 4.536003e+06
6.661460e+00 4.400130e+06
6.763706e+00 4.266585e+06
6.867521e+00 4.138412e+06
6.972929e+00 4.014811e+06
7.079956e+00 3.893742e+06
7.188625e+00 3.776997e+06
7.298963e+00 3.664285e+06
7.410994e+00 3.553222e+06
7.524744e+00 3.445460e+06
7.640240e+00 3.343637e+06
7.757509e+00 3.244580e+06
7.876578e+00 3.145212e+06
7.997475e+00 3.052425e+06
8.120227e+00 2.958557e+06
8.244863e+00 2.868363e+06
8.371413e+00 2.783183e+06
8.499905e+00 2.698525e+06
8.630369e+00 2.617250e+06
8.762835e+00 2.538691e+06
8.897335e+00 2.461871e+06
9.033899e+00 2.388306e+06
9.172559e+00 2.314882e+06
9.313347e+00 2.245806e+06
9.456297e+00 2.178186e+06
9.601440e+00 2.111430e+06
9.748811e+00 2.047797e+06
9.898445e+00 1.986774e+06
1.005037e+01 1.927102e+06
1.020464e+01 1.868605e+06
1.036127e+01 1.811427e+06
1.052030e+01 1.756283e+06
1.068177e+01 1.703145e+06
1.084573e+01 1.651503e+06
1.101220e+01 1.600528e+06
1.118122e+01 1.552301e+06
1.135284e+01 1.505301e+06
1.152709e+01 1.460468e+06
1.170402e+01 1.416015e+06
1.188367e+01 1.372930e+06
1.206607e+01 1.331055e+06
1.225127e+01 1.290166e+06
1.243931e+01 1.251214e+06
1.263024e+01 1.213009e+06
1.282410e+01 1.176101e+06
1.302094e+01 1.140011e+06
1.322079e+01 1.105310e+06
1.342372e+01 1.071994e+06
1.362976e+01 1.039609e+06
1.383896e+01 1.008058e+06
1.405137e+01 9.765843e+05
1.426704e+01 9.466554e+05
1.448602e+01 9.182691e+05
1.470837e+01 8.901787e+05
1.493413e+01 8.629703e+05
1.516335e+01 8.367887e+05
1.539609e+01 8.115717e+05
1.563240e+01 7.865171e+05
1.587234e+01 7.628248e+05
1.611596e+01 7.399461e+05
1.636332e+01 7.170868e+05
1.661448e+01 6.947068e+05
1.686950e+01 6.737457e+05
1.712842e+01 6.533138e+05
1.739133e+01 6.336557e+05
1.765826e+01 6.141997e+05
1.792930e+01 5.953809e+05
1.820449e+01 5.768896e+05
1.848391e+01 5.590569e+05
1.876762e+01 5.418180e+05
1.905568e+01 5.251212e+05
1.934816e+01 5.088443e+05
1.964514e+01 4.931550e+05
1.994667e+01 4.780565e+05
2.025283e+01 4.633999e+05
2.056368e+01 4.491975e+05
2.087931e+01 4.352661e+05
2.119979e+01 4.219935e+05
2.152518e+01 4.090158e+05
2.185557e+01 3.962441e+05
2.219102e+01 3.839457e+05
2.253163e+01 3.720126e+05
2.287747e+01 3.606039e+05
2.322861e+01 3.493575e+05
2.358514e+01 3.385542e+05
2.394715e+01 3.277667e+05
2.431471e+01 3.176291e+05
2.468791e+01 3.078305e+05
2.506685e+01 2.981466e+05
2.545159e+01 2.888263e+05
2.584225e+01 2.796573e+05
2.623890e+01 2.709550e+05
2.664163e+01 2.624238e+05
2.705055e+01 2.540676e+05
2.746575e+01 2.460772e+05
2.788732e+01 2.383545e+05
2.831535e+01 2.308573e+05
2.874996e+01 2.235898e+05
2.919124e+01 2.165861e+05
2.963930e+01 2.097679e+05
3.009423e+01 2.031456e+05
3.055614e+01 1.966698e+05
3.102514e+01 1.903985e+05
3.150134e+01 1.843228e+05
3.198485e+01 1.784479e+05
3.247578e+01 1.727912e+05
3.297425e+01 1.672038e+05
3.348037e+01 1.618975e+05
3.399425e+01 1.567519e+05
3.451603e+01 1.517742e+05
3.504581e+01 1.469069e+05
3.558372e+01 1.421929e+05
3.612989e+01 1.376633e+05
3.668444e+01 1.332524e+05
3.724751e+01 1.289851e+05
3.781922e+01 1.248096e+05
3.839970e+01 1.207803e+05
3.898909e+01 1.168550e+05
3.958753e+01 1.129883e+05
4.019515e+01 1.092983e+05
4.081210e+01 1.057140e+05
4.143852e+01 1.022247e+05
4.207456e+01 9.888615e+04
4.272035e+01 9.564541e+04
4.337606e+01 9.250724e+04
4.404184e+01 8.948789e+04
4.471783e+01 8.653736e+04
4.540420e+01 8.371321e+04
4.610110e+01 8.095853e+04
4.680870e+01 7.830311e+04
4.752716e+01 7.571562e+04
4.825665e+01 7.324269e+04
4.899734e+01 7.087667e+04
4.974939e+01 6.855013e+04
5.051299e+01 6.622724e+04
5.128830e+01 6.401389e+04
5.207552e+01 6.187097e+04
5.287482e+01 5.982511e+04
5.368639e+01 5.783672e+04
5.451042e+01 5.589893e+04
5.534709e+01 5.399079e+04
5.619661e+01 5.220084e+04
5.705916e+01 5.041504e+04
5.793495e+01 4.870762e+04
5.882419e+01 4.706436e+04
5.972707e+01 4.547966e+04
6.064382e+01 4.390532e+04
6.157463e+01 4.242750e+04
6.251973e+01 4.100611e+04
6.347934e+01 3.960121e+04
6.445368e+01 3.827127e+04
6.544297e+01 3.696619e+04
6.644744e+01 3.570321e+04
6.746734e+01 3.448026e+04
6.850288e+01 3.330663e+04
6.955433e+01 3.215594e+04
7.062191e+01 3.105782e+04
7.170587e+01 2.997705e+04
7.280648e+01 2.892764e+04
7.392398e+01 2.792703e+04
7.505862e+01 2.695632e+04
7.621069e+01 2.600195e+04
7.738044e+01 2.509776e+04
7.856814e+01 2.423677e+04
7.977407e+01 2.337986e+04
8.099851e+01 2.255525e+04
8.224175e+01 2.173920e+04
8.350407e+01 2.096682e+04
8.478576e+01 2.021711e+04
8.608713e+01 1.948799e+04
8.740847e+01 1.878682e+04
8.875009e+01 1.811749e+04
9.011230e+01 1.746417e+04
9.149543e+01 1.683781e+04
9.289978e+01 1.623482e+04
9.432568e+01 1.564160e+04
9.577348e+01 1.506377e+04
9.724349e+01 1.452126e+04
9.873607e+01 1.399785e+04
1.002516e+02 1.348616e+04
1.017903e+02 1.299478e+04
1.033527e+02 1.251238e+04
1.049390e+02 1.205477e+04
1.065497e+02 1.161511e+04
1.081851e+02 1.118138e+04
1.098457e+02 1.077053e+04
1.115317e+02 1.036955e+04
1.132435e+02 9.981468e+03
1.149817e+02 9.613541e+03
1.167465e+02 9.242982e+03
1.185385e+02 8.888167e+03
1.203579e+02 8.543426e+03
1.222053e+02 8.218296e+03
1.240810e+02 7.908484e+03
1.259855e+02 7.615542e+03
1.279192e+02 7.330518e+03
1.298826e+02 7.052475e+03
1.318762e+02 6.790316e+03
1.339003e+02 6.530565e+03
1.359555e+02 6.279968e+03
1.380423e+02 6.034509e+03
1.401611e+02 5.801654e+03
1.423124e+02 5.572329e+03
1.444968e+02 5.351009e+03
1.467146e+02 5.139965e+03
1.489665e+02 4.939218e+03
1.512530e+02 4.736587e+03
1.535746e+02 4.551173e+03
1.559317e+02 4.369618e+03
1.583251e+02 4.194267e+03
1.607552e+02 4.028750e+03
1.632226e+02 3.869508e+03
1.657279e+02 3.720059e+03
1.682717e+02 3.571852e+03
1.708544e+02 3.429779e+03
1.734769e+02 3.290470e+03
1.761395e+02 3.157690e+03
1.788431e+02 3.029563e+03
1.815881e+02 2.905835e+03
1.843753e+02 2.786086e+03
1.872053e+02 2.671869e+03
1.900786e+02 2.564133e+03
1.929961e+02 2.460342e+03
1.959584e+02 2.355982e+03
1.989662e+02 2.255850e+03
2.020201e+02 2.161699e+03
2.051208e+02 2.071131e+03
2.082692e+02 1.983958e+03
2.114659e+02 1.899345e+03
2.147117e+02 1.816611e+03
2.180073e+02 1.736163e+03
2.213534e+02 1.660650e+03
2.247509e+02 1.587095e+03
2.282006e+02 1.516064e+03
2.317032e+02 1.450805e+03
2.352596e+02 1.383685e+03
2.388706e+02 1.323144e+03
2.425370e+02 1.266782e+03
2.462597e+02 1.211281e+03
2.500395e+02 1.156550e+03
2.538773e+02 1.103728e+03
2.577740e+02 1.052051e+03
2.617306e+02 1.002295e+03
2.657478e+02 9.569899e+02
2.698268e+02 9.131222e+02
2.739683e+02 8.713584e+02
2.781734e+02 8.322215e+02
2.824430e+02 7.918453e+02
2.867782e+02 7.551520e+02
2.911799e+02 7.204881e+02
2.956492e+02 6.872325e+02
3.001871e+02 6.558276e+02
3.047946e+02 6.243207e+02
3.094729e+02 5.944837e+02
3.142230e+02 5.654256e+02
3.190459e+02 5.377562e+02
3.239429e+02 5.111357e+02
3.289151e+02 4.855689e+02
3.339636e+02 4.620224e+02
3.390895e+02 4.385941e+02
3.442942e+02 4.161154e+02
3.495787e+02 3.949272e+02
3.549443e+02 3.745906e+02
3.603923e+02 3.550679e+02
3.659239e+02 3.374558e+02
3.715405e+02 3.198637e+02
3.772432e+02 3.032567e+02
3.830334e+02 2.877282e+02
3.889126e+02 2.720418e+02
3.948819e+02 2.572343e+02
4.009429e+02 2.435126e+02
4.070970e+02 2.302058e+02
4.133454e+02 2.175693e+02
4.196898e+02 2.060652e+02
4.261316e+02 1.951644e+02
4.326722e+02 1.843147e+02
4.393133e+02 1.740849e+02
4.460562e+02 1.643612e+02
4.529027e+02 1.550587e+02
4.598542e+02 1.460392e+02
4.669125e+02 1.375807e+02
4.740790e+02 1.303045e+02
4.813556e+02 1.227827e+02
4.887439e+02 1.153860e+02
4.962456e+02 1.085249e+02
5.038624e+02 1.020651e+02
5.115961e+02 9.584464e+01
5.194485e+02 8.995043e+01
5.274215e+02 8.445351e+01
5.355168e+02 7.930109e+01
5.437364e+02 7.437008e+01
5.520821e+02 6.970179e+01
5.605559e+02 6.512074e+01
5.691598e+02 6.081070e+01
5.778958e+02 5.683213e+01
5.867659e+02 5.316225e+01
5.957720e+02 4.952197e+01
6.049165e+02 4.620035e+01
6.142013e+02 4.312277e+01
6.236286e+02 4.024422e+01
6.332005e+02 3.755585e+01
6.429195e+02 3.498419e+01
6.527876e+02 3.255145e+01
6.628071e+02 3.029285e+01
6.729804e+02 2.814970e+01
6.833099e+02 2.614410e+01
6.937980e+02 2.425914e+01
7.044470e+02 2.252579e+01
7.152595e+02 2.088797e+01
7.262379e+02 1.938236e+01
7.373848e+02 1.796055e+01
7.487028e+02 1.662866e+01
7.601946e+02 1.536827e+01
7.718627e+02 1.421000e+01
7.837099e+02 1.314627e+01
7.957390e+02 1.212941e+01
8.079527e+02 1.117962e+01
8.203539e+02 1.028658e+01
8.329454e+02 9.466110e+00
8.457301e+02 8.698323e+00
8.587111e+02 7.990152e+00
8.718914e+02 7.333483e+00
8.852739e+02 6.718957e+00
8.988619e+02 6.159968e+00
9.126584e+02 5.634074e+00
9.266667e+02 5.150696e+00
9.408900e+02 4.707538e+00
9.553316e+02 4.298570e+00
9.699948e+02 3.921482e+00
9.848832e+02 3.571416e+00
1.000000e+03 3.252053e+00
