# Energy(MeV) Fluence_Planar_Median(cm^-2*MeV^-1)
1.000000e-01 1.402916e+12
1.015495e-01 1.349879e+12
1.031230e-01 1.298074e+12
1.047209e-01 1.248258e+12
1.063436e-01 1.200871e+12
1.079914e-01 1.155566e+12
1.096647e-01 1.111969e+12
1.113639e-01 1.070017e+12
1.130895e-01 1.029647e+12
1.148418e-01 9.907999e+11
1.166213e-01 9.534184e+11
1.184284e-01 9.174470e+11
1.202634e-01 8.830980e+11
1.221269e-01 8.501082e+11
1.240193e-01 8.181660e+11
1.259409e-01 7.873354e+11
1.278924e-01 7.576665e+11
1.298741e-01 7.290929e+11
1.318865e-01 7.013068e+11
1.339301e-01 6.748208e+11
1.360053e-01 6.495666e+11
1.381127e-01 6.254063e+11
1.402528e-01 6.020168e+11
1.424260e-01 5.795967e+11
1.446329e-01 5.576407e+11
1.468740e-01 5.363046e+11
1.491498e-01 5.158039e+11
1.514609e-01 4.962715e+11
1.538078e-01 4.774787e+11
1.561910e-01 4.593975e+11
1.586112e-01 4.420010e+11
1.610689e-01 4.252631e+11
1.635647e-01 4.091590e+11
1.660991e-01 3.936647e+11
1.686728e-01 3.787571e+11
1.712864e-01 3.645537e+11
1.739405e-01 3.508971e+11
1.766357e-01 3.376447e+11
1.793727e-01 3.248927e+11
1.821520e-01 3.126223e+11
1.849745e-01 3.008153e+11
1.878407e-01 2.894541e+11
1.907513e-01 2.784636e+11
1.937070e-01 2.678987e+11
1.967085e-01 2.578196e+11
1.997565e-01 2.482080e+11
2.028517e-01 2.388129e+11
2.059949e-01 2.297735e+11
2.091868e-01 2.210761e+11
2.124281e-01 2.127105e+11
2.157197e-01 2.046916e+11
2.190623e-01 1.969614e+11
2.224567e-01 1.895230e+11
2.259036e-01 1.823655e+11
2.294040e-01 1.754782e+11
2.329586e-01 1.688509e+11
2.365683e-01 1.624691e+11
2.402340e-01 1.563664e+11
2.439564e-01 1.504769e+11
2.477365e-01 1.447235e+11
2.515752e-01 1.391745e+11
2.554733e-01 1.339219e+11
2.594319e-01 1.288295e+11
2.634518e-01 1.239674e+11
2.675340e-01 1.193262e+11
2.716794e-01 1.147727e+11
2.758891e-01 1.104365e+11
2.801640e-01 1.063057e+11
2.845052e-01 1.023294e+11
2.889136e-01 9.848528e+10
2.933903e-01 9.472268e+10
2.979364e-01 9.111018e+10
3.025529e-01 8.770041e+10
3.072410e-01 8.440907e+10
3.120017e-01 8.119444e+10
3.168361e-01 7.810220e+10
3.217455e-01 7.512769e+10
3.267310e-01 7.228830e+10
3.317937e-01 6.955866e+10
3.369348e-01 6.692307e+10
3.421556e-01 6.439507e+10
3.474573e-01 6.197952e+10
3.528412e-01 5.964067e+10
3.583085e-01 5.738404e+10
3.638605e-01 5.522267e+10
3.694985e-01 5.313329e+10
3.752239e-01 5.111777e+10
3.810380e-01 4.916461e+10
3.869422e-01 4.728777e+10
3.929379e-01 4.549267e+10
3.990264e-01 4.377083e+10
4.052094e-01 4.210769e+10
4.114881e-01 4.050944e+10
4.178641e-01 3.898985e+10
4.243389e-01 3.752625e+10
4.309140e-01 3.611803e+10
4.375911e-01 3.473706e+10
4.443715e-01 3.341544e+10
4.512571e-01 3.216228e+10
4.582493e-01 3.091712e+10
4.653499e-01 2.972017e+10
4.725605e-01 2.858296e+10
4.798828e-01 2.750077e+10
4.873186e-01 2.645917e+10
4.948696e-01 2.545700e+10
5.025377e-01 2.449275e+10
5.103245e-01 2.356309e+10
5.182320e-01 2.266899e+10
5.262620e-01 2.180150e+10
5.344164e-01 2.096718e+10
5.426972e-01 2.016697e+10
5.511063e-01 1.941012e+10
5.596457e-01 1.867307e+10
5.683174e-01 1.795889e+10
5.771235e-01 1.727792e+10
5.860661e-01 1.662515e+10
5.951472e-01 1.599437e+10
6.043690e-01 1.539324e+10
6.137337e-01 1.481465e+10
6.232435e-01 1.424871e+10
6.329007e-01 1.370382e+10
6.427075e-01 1.318612e+10
6.526662e-01 1.267657e+10
6.627793e-01 1.219912e+10
6.730491e-01 1.173167e+10
6.834780e-01 1.128244e+10
6.940685e-01 1.085231e+10
7.048231e-01 1.044629e+10
7.157444e-01 1.004651e+10
7.268348e-01 9.669899e+09
7.380971e-01 9.304798e+09
7.495340e-01 8.948573e+09
7.611480e-01 8.608548e+09
7.729420e-01 8.286427e+09
7.849188e-01 7.979985e+09
7.970811e-01 7.683562e+09
8.094319e-01 7.396491e+09
8.219740e-01 7.118127e+09
8.347105e-01 6.848360e+09
8.476444e-01 6.590549e+09
8.607786e-01 6.340289e+09
8.741164e-01 6.099215e+09
8.876609e-01 5.871209e+09
9.014152e-01 5.651970e+09
9.153826e-01 5.438407e+09
9.295665e-01 5.228801e+09
9.439702e-01 5.030419e+09
9.585970e-01 4.838991e+09
9.734505e-01 4.650289e+09
9.885341e-01 4.469775e+09
1.003851e+00 4.299372e+09
1.019406e+00 4.135458e+09
1.035202e+00 3.975164e+09
1.051242e+00 3.824524e+09
1.067531e+00 3.677137e+09
1.084073e+00 3.534802e+09
1.100870e+00 3.401064e+09
1.117928e+00 3.272837e+09
1.135251e+00 3.146941e+09
1.152842e+00 3.025167e+09
1.170705e+00 2.909367e+09
1.188845e+00 2.795075e+09
1.207266e+00 2.686107e+09
1.225973e+00 2.582816e+09
1.244969e+00 2.483012e+09
1.264260e+00 2.385169e+09
1.283850e+00 2.292084e+09
1.303743e+00 2.204606e+09
1.323945e+00 2.120742e+09
1.344459e+00 2.038225e+09
1.365291e+00 1.961834e+09
1.386447e+00 1.887635e+09
1.407930e+00 1.815851e+09
1.429746e+00 1.742645e+09
1.451900e+00 1.675612e+09
1.474397e+00 1.612088e+09
1.497243e+00 1.551888e+09
1.520442e+00 1.492226e+09
1.544002e+00 1.434432e+09
1.567926e+00 1.378759e+09
1.592221e+00 1.324673e+09
1.616892e+00 1.272845e+09
1.641946e+00 1.223463e+09
1.667388e+00 1.176650e+09
1.693224e+00 1.131980e+09
1.719461e+00 1.088352e+09
1.746104e+00 1.046835e+09
1.773160e+00 1.007107e+09
1.800635e+00 9.679629e+08
1.828536e+00 9.300025e+08
1.856869e+00 8.938836e+08
1.885641e+00 8.590280e+08
1.914859e+00 8.263859e+08
1.944530e+00 7.948503e+08
1.974661e+00 7.638812e+08
2.005258e+00 7.343569e+08
2.036330e+00 7.064205e+08
2.067883e+00 6.790344e+08
2.099924e+00 6.527941e+08
2.132463e+00 6.277556e+08
2.165505e+00 6.041664e+08
2.199060e+00 5.812339e+08
2.233134e+00 5.588738e+08
2.267737e+00 5.368391e+08
2.302875e+00 5.153893e+08
2.338559e+00 4.957093e+08
2.374795e+00 4.764189e+08
2.411592e+00 4.573597e+08
2.448960e+00 4.398396e+08
2.486906e+00 4.228942e+08
2.525441e+00 4.064639e+08
2.564573e+00 3.905224e+08
2.604311e+00 3.755382e+08
2.644665e+00 3.612323e+08
2.685644e+00 3.472526e+08
2.727258e+00 3.339392e+08
2.769517e+00 3.210243e+08
2.812431e+00 3.085835e+08
2.856009e+00 2.964950e+08
2.900263e+00 2.851572e+08
2.945203e+00 2.739491e+08
2.990839e+00 2.632317e+08
3.037182e+00 2.531514e+08
3.084243e+00 2.435435e+08
3.132033e+00 2.336846e+08
3.180564e+00 2.246487e+08
3.229847e+00 2.159624e+08
3.279894e+00 2.075567e+08
3.330716e+00 1.992735e+08
3.382325e+00 1.913740e+08
3.434734e+00 1.839170e+08
3.487956e+00 1.767171e+08
3.542002e+00 1.699141e+08
3.596885e+00 1.634120e+08
3.652619e+00 1.569438e+08
3.709216e+00 1.508400e+08
3.766690e+00 1.447768e+08
3.825055e+00 1.390573e+08
3.884325e+00 1.336051e+08
3.944512e+00 1.284856e+08
4.005633e+00 1.234675e+08
4.067700e+00 1.187261e+08
4.130729e+00 1.141930e+08
4.194735e+00 1.097873e+08
4.259732e+00 1.054583e+08
4.325737e+00 1.012500e+08
4.392764e+00 9.715735e+07
4.460830e+00 9.336337e+07
4.529951e+00 8.972525e+07
4.600143e+00 8.608899e+07
4.671422e+00 8.261218e+07
4.743806e+00 7.940174e+07
4.817311e+00 7.634112e+07
4.891955e+00 7.335717e+07
4.967756e+00 7.040041e+07
5.044732e+00 6.761388e+07
5.122900e+00 6.495717e+07
5.202279e+00 6.238645e+07
5.282889e+00 5.996480e+07
5.364747e+00 5.762485e+07
5.447874e+00 5.538098e+07
5.532289e+00 5.322407e+07
5.618012e+00 5.110633e+07
5.705063e+00 4.905196e+07
5.793463e+00 4.711725e+07
5.883233e+00 4.531719e+07
5.974393e+00 4.354665e+07
6.066967e+00 4.178344e+07
6.160975e+00 4.015169e+07
6.256439e+00 3.859203e+07
6.353383e+00 3.705888e+07
6.451828e+00 3.559795e+07
6.551800e+00 3.416174e+07
6.653320e+00 3.284554e+07
6.756413e+00 3.154333e+07
6.861104e+00 3.028920e+07
6.967417e+00 2.910252e+07
7.075377e+00 2.793130e+07
7.185010e+00 2.683381e+07
7.296342e+00 2.574444e+07
7.409399e+00 2.471992e+07
7.524208e+00 2.373235e+07
7.640795e+00 2.279818e+07
7.759190e+00 2.189584e+07
7.879418e+00 2.103179e+07
8.001510e+00 2.019149e+07
8.125494e+00 1.939569e+07
8.251398e+00 1.860676e+07
8.379254e+00 1.787088e+07
8.509090e+00 1.715151e+07
8.640939e+00 1.646235e+07
8.774830e+00 1.580313e+07
8.910797e+00 1.517409e+07
9.048869e+00 1.456640e+07
9.189082e+00 1.400063e+07
9.331467e+00 1.343854e+07
9.476058e+00 1.290320e+07
9.622890e+00 1.238940e+07
9.771997e+00 1.188281e+07
9.923414e+00 1.139799e+07
1.007718e+01 1.093477e+07
1.023332e+01 1.049284e+07
1.039189e+01 1.007188e+07
1.055291e+01 9.667242e+06
1.071643e+01 9.277566e+06
1.088248e+01 8.907495e+06
1.105110e+01 8.550033e+06
1.122234e+01 8.201978e+06
1.139623e+01 7.867284e+06
1.157282e+01 7.551403e+06
1.175214e+01 7.250135e+06
1.193424e+01 6.959848e+06
1.211916e+01 6.673272e+06
1.230694e+01 6.401037e+06
1.249764e+01 6.139254e+06
1.269129e+01 5.888408e+06
1.288794e+01 5.649866e+06
1.308764e+01 5.417851e+06
1.329044e+01 5.193683e+06
1.349637e+01 4.978900e+06
1.370550e+01 4.775030e+06
1.391787e+01 4.578951e+06
1.413352e+01 4.390949e+06
1.435252e+01 4.207669e+06
1.457491e+01 4.035692e+06
1.480075e+01 3.871600e+06
1.503009e+01 3.710801e+06
1.526298e+01 3.558960e+06
1.549948e+01 3.412563e+06
1.573965e+01 3.271838e+06
1.598353e+01 3.135384e+06
1.623120e+01 3.006674e+06
1.648270e+01 2.880891e+06
1.673810e+01 2.761723e+06
1.699746e+01 2.647196e+06
1.726083e+01 2.538538e+06
1.752829e+01 2.436274e+06
1.779989e+01 2.334637e+06
1.807570e+01 2.238849e+06
1.835578e+01 2.143442e+06
1.864021e+01 2.053736e+06
1.892904e+01 1.968149e+06
1.922234e+01 1.885064e+06
1.952019e+01 1.806489e+06
1.982266e+01 1.730974e+06
2.012981e+01 1.658697e+06
2.044172e+01 1.589577e+06
2.075847e+01 1.522894e+06
2.108012e+01 1.459650e+06
2.140676e+01 1.398814e+06
2.173846e+01 1.339218e+06
2.207529e+01 1.283103e+06
2.241735e+01 1.229580e+06
2.276471e+01 1.177904e+06
2.311745e+01 1.128805e+06
2.347565e+01 1.081545e+06
2.383941e+01 1.035716e+06
2.420880e+01 9.920969e+05
2.458392e+01 9.491315e+05
2.496485e+01 9.077846e+05
2.535168e+01 8.691001e+05
2.574450e+01 8.321101e+05
2.614341e+01 7.967275e+05
2.654850e+01 7.627757e+05
2.695987e+01 7.289978e+05
2.737762e+01 6.974292e+05
2.780183e+01 6.672126e+05
2.823262e+01 6.385209e+05
2.867009e+01 6.111505e+05
2.911433e+01 5.848482e+05
2.956546e+01 5.594674e+05
3.002358e+01 5.351510e+05
3.048879e+01 5.119515e+05
3.096122e+01 4.898110e+05
3.144096e+01 4.687232e+05
3.192814e+01 4.490051e+05
3.242287e+01 4.302366e+05
3.292526e+01 4.118761e+05
3.343544e+01 3.940465e+05
3.395352e+01 3.771361e+05
3.447963e+01 3.610058e+05
3.501389e+01 3.456940e+05
3.555643e+01 3.307249e+05
3.610738e+01 3.161344e+05
3.666687e+01 3.019458e+05
3.723502e+01 2.887993e+05
3.781198e+01 2.759213e+05
3.839787e+01 2.641937e+05
3.899285e+01 2.528242e+05
3.959704e+01 2.418236e+05
4.021060e+01 2.312920e+05
4.083367e+01 2.213646e+05
4.146638e+01 2.117833e+05
4.210891e+01 2.026008e+05
4.276138e+01 1.937629e+05
4.342397e+01 1.853984e+05
4.409683e+01 1.772990e+05
4.478011e+01 1.695501e+05
4.547398e+01 1.621494e+05
4.617860e+01 1.550040e+05
4.689414e+01 1.482269e+05
4.762076e+01 1.417850e+05
4.835865e+01 1.355019e+05
4.910796e+01 1.295083e+05
4.986889e+01 1.238587e+05
5.064161e+01 1.183325e+05
5.142630e+01 1.131681e+05
5.222315e+01 1.080881e+05
5.303235e+01 1.032884e+05
5.385409e+01 9.872129e+04
5.468856e+01 9.435615e+04
5.553596e+01 9.018402e+04
5.639649e+01 8.624149e+04
5.727036e+01 8.242220e+04
5.815776e+01 7.874892e+04
5.905892e+01 7.523568e+04
5.997404e+01 7.188538e+04
6.090333e+01 6.875088e+04
6.184703e+01 6.570453e+04
6.280535e+01 6.277426e+04
6.377852e+01 6.002944e+04
6.476677e+01 5.738841e+04
6.577033e+01 5.486398e+04
6.678945e+01 5.244882e+04
6.782435e+01 5.014425e+04
6.887529e+01 4.793591e+04
6.994251e+01 4.577279e+04
7.102627e+01 4.372134e+04
7.212683e+01 4.176316e+04
7.324443e+01 3.986800e+04
7.437936e+01 3.805361e+04
7.553187e+01 3.634750e+04
7.670223e+01 3.473278e+04
7.789074e+01 3.317526e+04
7.909765e+01 3.168386e+04
8.032327e+01 3.028380e+04
8.156788e+01 2.894049e+04
8.283178e+01 2.765198e+04
8.411526e+01 2.639989e+04
8.541863e+01 2.521958e+04
8.674219e+01 2.413600e+04
8.808626e+01 2.307332e+04
8.945116e+01 2.203832e+04
9.083721e+01 2.102671e+04
9.224473e+01 2.008586e+04
9.367406e+01 1.917439e+04
9.512555e+01 1.832068e+04
9.659952e+01 1.749650e+04
9.809633e+01 1.671869e+04
9.961633e+01 1.596062e+04
1.011599e+02 1.523768e+04
1.027274e+02 1.454480e+04
1.043191e+02 1.387896e+04
1.059356e+02 1.322815e+04
1.075770e+02 1.260633e+04
1.092439e+02 1.201512e+04
1.109367e+02 1.145995e+04
1.126556e+02 1.093875e+04
1.144012e+02 1.044354e+04
1.161739e+02 9.962874e+03
1.179740e+02 9.515597e+03
1.198020e+02 9.078074e+03
1.216583e+02 8.668062e+03
1.235434e+02 8.277475e+03
1.254578e+02 7.898385e+03
1.274017e+02 7.538828e+03
1.293758e+02 7.194661e+03
1.313805e+02 6.867997e+03
1.334162e+02 6.556160e+03
1.354835e+02 6.258368e+03
1.375828e+02 5.976984e+03
1.397147e+02 5.704075e+03
1.418796e+02 5.440660e+03
1.440780e+02 5.189003e+03
1.463105e+02 4.948677e+03
1.485776e+02 4.715881e+03
1.508798e+02 4.501747e+03
1.532177e+02 4.297280e+03
1.555918e+02 4.099187e+03
1.580027e+02 3.910677e+03
1.604509e+02 3.729454e+03
1.629371e+02 3.554871e+03
1.654618e+02 3.391059e+03
1.680257e+02 3.236026e+03
1.706292e+02 3.087150e+03
1.732731e+02 2.943653e+03
1.759580e+02 2.810717e+03
1.786845e+02 2.681663e+03
1.814532e+02 2.557394e+03
1.842648e+02 2.437741e+03
1.871200e+02 2.327650e+03
1.900194e+02 2.220637e+03
1.929638e+02 2.119768e+03
1.959538e+02 2.024045e+03
1.989901e+02 1.933182e+03
2.020734e+02 1.844842e+03
2.052045e+02 1.761563e+03
2.083842e+02 1.682750e+03
2.116131e+02 1.605814e+03
2.148921e+02 1.533588e+03
2.182218e+02 1.462697e+03
2.216032e+02 1.396334e+03
2.250369e+02 1.332782e+03
2.285239e+02 1.271946e+03
2.320648e+02 1.212810e+03
2.356607e+02 1.158045e+03
2.393123e+02 1.104302e+03
2.430204e+02 1.052985e+03
2.467860e+02 1.004126e+03
2.506100e+02 9.575351e+02
2.544932e+02 9.140977e+02
2.584365e+02 8.723872e+02
2.624410e+02 8.315851e+02
2.665075e+02 7.938976e+02
2.706371e+02 7.579549e+02
2.748306e+02 7.232019e+02
2.790891e+02 6.899427e+02
2.834136e+02 6.584600e+02
2.878051e+02 6.284140e+02
2.922647e+02 5.994652e+02
2.967933e+02 5.716766e+02
3.013921e+02 5.448047e+02
3.060622e+02 5.194155e+02
3.108046e+02 4.951549e+02
3.156206e+02 4.728011e+02
3.205111e+02 4.512819e+02
3.254774e+02 4.307960e+02
3.305207e+02 4.104970e+02
3.356421e+02 3.912220e+02
3.408429e+02 3.732478e+02
3.461243e+02 3.561119e+02
3.514875e+02 3.395978e+02
3.569338e+02 3.238496e+02
3.624645e+02 3.088607e+02
3.680809e+02 2.948900e+02
3.737843e+02 2.812615e+02
3.795761e+02 2.680097e+02
3.854576e+02 2.555434e+02
3.914303e+02 2.435318e+02
3.974955e+02 2.325634e+02
4.036547e+02 2.221554e+02
4.099093e+02 2.117619e+02
4.162609e+02 2.016108e+02
4.227109e+02 1.923190e+02
4.292608e+02 1.832667e+02
4.359122e+02 1.746535e+02
4.426666e+02 1.665788e+02
4.495258e+02 1.590248e+02
4.564912e+02 1.518655e+02
4.635645e+02 1.447802e+02
4.707475e+02 1.381128e+02
4.780417e+02 1.317607e+02
4.854490e+02 1.257944e+02
4.929710e+02 1.198587e+02
5.006096e+02 1.144053e+02
5.083665e+02 1.091928e+02
5.162437e+02 1.041781e+02
5.242429e+02 9.946127e+01
5.323660e+02 9.485015e+01
5.406151e+02 9.049457e+01
5.489919e+02 8.631882e+01
5.574985e+02 8.227910e+01
5.661370e+02 7.848968e+01
5.749093e+02 7.491212e+01
5.838175e+02 7.149763e+01
5.928638e+02 6.823879e+01
6.020502e+02 6.508922e+01
6.113790e+02 6.217984e+01
6.208523e+02 5.927183e+01
6.304724e+02 5.652358e+01
6.402416e+02 5.386400e+01
6.501622e+02 5.135573e+01
6.602365e+02 4.898925e+01
6.704668e+02 4.673057e+01
6.808557e+02 4.456290e+01
6.914056e+02 4.251608e+01
7.021189e+02 4.054810e+01
7.129983e+02 3.867823e+01
7.240462e+02 3.688831e+01
7.352653e+02 3.519318e+01
7.466583e+02 3.357596e+01
7.582277e+02 3.207374e+01
7.699765e+02 3.061167e+01
7.819073e+02 2.921609e+01
7.940229e+02 2.788610e+01
8.063263e+02 2.658910e+01
8.188204e+02 2.535858e+01
8.315080e+02 2.418275e+01
8.443923e+02 2.307842e+01
8.574761e+02 2.200837e+01
8.707627e+02 2.100434e+01
8.842552e+02 2.005239e+01
8.979568e+02 1.912020e+01
9.118706e+02 1.822153e+01
9.260001e+02 1.738147e+01
9.403485e+02 1.656543e+01
9.549192e+02 1.581110e+01
9.697157e+02 1.508214e+01
9.847414e+02 1.437598e+01
1.000000e+03 1.371319e+01
