# Energy(MeV) Phi16_Spherical Phi84_Spherical
1.000000e-01 2.066646e+12 9.721263e+12
1.015495e-01 1.981079e+12 9.328347e+12
1.031230e-01 1.907814e+12 8.950368e+12
1.047209e-01 1.837377e+12 8.586129e+12
1.063436e-01 1.769496e+12 8.236712e+12
1.079914e-01 1.704078e+12 7.903063e+12
1.096647e-01 1.639514e+12 7.581489e+12
1.113639e-01 1.570899e+12 7.279795e+12
1.130895e-01 1.505707e+12 6.989537e+12
1.148418e-01 1.445078e+12 6.709577e+12
1.166213e-01 1.386411e+12 6.439433e+12
1.184284e-01 1.326705e+12 6.180165e+12
1.202634e-01 1.269571e+12 5.931335e+12
1.221269e-01 1.214897e+12 5.692523e+12
1.240193e-01 1.162577e+12 5.463321e+12
1.259409e-01 1.112511e+12 5.242822e+12
1.278924e-01 1.064601e+12 5.031207e+12
1.298741e-01 1.019058e+12 4.828134e+12
1.318865e-01 9.761849e+11 4.633877e+12
1.339301e-01 9.360990e+11 4.448897e+12
1.360053e-01 8.976600e+11 4.271301e+12
1.381127e-01 8.608001e+11 4.100794e+12
1.402528e-01 8.254545e+11 3.937093e+12
1.424260e-01 7.915609e+11 3.779753e+12
1.446329e-01 7.590596e+11 3.627118e+12
1.468740e-01 7.278934e+11 3.481481e+12
1.491498e-01 6.980075e+11 3.341290e+12
1.514609e-01 6.693492e+11 3.206744e+12
1.538078e-01 6.418680e+11 3.077588e+12
1.561910e-01 6.155157e+11 2.953574e+12
1.586112e-01 5.902458e+11 2.834557e+12
1.610689e-01 5.660138e+11 2.720184e+12
1.635647e-01 5.427770e+11 2.610384e+12
1.660991e-01 5.204947e+11 2.505016e+12
1.686728e-01 4.991275e+11 2.403901e+12
1.712864e-01 4.786896e+11 2.306866e+12
1.739405e-01 4.592084e+11 2.213748e+12
1.766357e-01 4.405201e+11 2.124388e+12
1.793727e-01 4.225923e+11 2.038635e+12
1.821520e-01 4.053941e+11 1.956342e+12
1.849745e-01 3.888958e+11 1.877371e+12
1.878407e-01 3.730690e+11 1.801885e+12
1.907513e-01 3.578862e+11 1.730884e+12
1.937070e-01 3.433214e+11 1.662681e+12
1.967085e-01 3.293493e+11 1.597101e+12
1.997565e-01 3.159458e+11 1.533548e+12
2.028517e-01 3.026389e+11 1.470610e+12
2.059949e-01 2.898241e+11 1.411889e+12
2.091868e-01 2.775521e+11 1.355665e+12
2.124281e-01 2.657705e+11 1.301679e+12
2.157197e-01 2.543035e+11 1.249843e+12
2.190623e-01 2.433316e+11 1.200142e+12
2.224567e-01 2.328332e+11 1.152563e+12
2.259036e-01 2.227881e+11 1.106883e+12
2.294040e-01 2.131766e+11 1.063013e+12
2.329586e-01 2.039799e+11 1.020881e+12
2.365683e-01 1.951803e+11 9.804188e+11
2.402340e-01 1.867604e+11 9.415599e+11
2.439564e-01 1.787040e+11 9.039256e+11
2.477365e-01 1.709953e+11 8.677831e+11
2.515752e-01 1.636193e+11 8.329884e+11
2.554733e-01 1.565617e+11 7.988284e+11
2.594319e-01 1.498721e+11 7.659361e+11
2.634518e-01 1.436904e+11 7.351727e+11
2.675340e-01 1.377638e+11 7.057269e+11
2.716794e-01 1.320818e+11 6.769283e+11
2.758891e-01 1.266343e+11 6.493049e+11
2.801640e-01 1.214116e+11 6.228088e+11
2.845052e-01 1.164044e+11 5.973938e+11
2.889136e-01 1.115224e+11 5.733451e+11
2.933903e-01 1.067521e+11 5.503154e+11
2.979364e-01 1.021859e+11 5.281285e+11
3.025529e-01 9.781502e+10 5.067609e+11
3.072410e-01 9.363109e+10 4.862831e+11
3.120017e-01 8.962614e+10 4.670969e+11
3.168361e-01 8.579251e+10 4.485842e+11
3.217455e-01 8.212286e+10 4.301609e+11
3.267310e-01 7.861019e+10 4.129818e+11
3.317937e-01 7.524778e+10 3.968170e+11
3.369348e-01 7.202919e+10 3.812111e+11
3.421556e-01 6.894829e+10 3.661945e+11
3.474573e-01 6.599917e+10 3.517427e+11
3.528412e-01 6.317621e+10 3.380165e+11
3.583085e-01 6.047399e+10 3.247938e+11
3.638605e-01 5.788737e+10 3.118114e+11
3.694985e-01 5.541139e+10 2.992734e+11
3.752239e-01 5.304132e+10 2.872395e+11
3.810380e-01 5.078229e+10 2.756893e+11
3.869422e-01 4.862238e+10 2.645994e+11
3.929379e-01 4.655433e+10 2.538854e+11
3.990264e-01 4.457426e+10 2.436051e+11
4.052094e-01 4.267840e+10 2.338273e+11
4.114881e-01 4.086317e+10 2.246138e+11
4.178641e-01 3.912516e+10 2.157634e+11
4.243389e-01 3.746107e+10 2.070523e+11
4.309140e-01 3.586776e+10 1.986425e+11
4.375911e-01 3.434222e+10 1.906879e+11
4.443715e-01 3.288157e+10 1.830754e+11
4.512571e-01 3.148304e+10 1.757666e+11
4.582493e-01 3.014400e+10 1.687496e+11
4.653499e-01 2.886191e+10 1.619661e+11
4.725605e-01 2.763435e+10 1.554309e+11
4.798828e-01 2.645900e+10 1.491902e+11
4.873186e-01 2.533365e+10 1.433075e+11
4.948696e-01 2.425616e+10 1.375100e+11
5.025377e-01 2.322450e+10 1.318801e+11
5.103245e-01 2.223671e+10 1.265331e+11
5.182320e-01 2.129095e+10 1.215619e+11
5.262620e-01 2.038540e+10 1.166689e+11
5.344164e-01 1.951838e+10 1.120283e+11
5.426972e-01 1.868823e+10 1.075628e+11
5.511063e-01 1.789339e+10 1.032283e+11
5.596457e-01 1.713235e+10 9.903221e+10
5.683174e-01 1.640369e+10 9.507110e+10
5.771235e-01 1.570601e+10 9.131110e+10
5.860661e-01 1.503801e+10 8.773044e+10
5.951472e-01 1.439843e+10 8.428064e+10
6.043690e-01 1.378604e+10 8.095278e+10
6.137337e-01 1.319970e+10 7.770076e+10
6.232435e-01 1.263830e+10 7.456358e+10
6.329007e-01 1.210078e+10 7.158100e+10
6.427075e-01 1.158612e+10 6.874561e+10
6.526662e-01 1.109335e+10 6.592035e+10
6.627793e-01 1.062154e+10 6.322731e+10
6.730491e-01 1.016979e+10 6.063310e+10
6.834780e-01 9.737262e+09 5.816478e+10
6.940685e-01 9.323128e+09 5.579324e+10
7.048231e-01 8.926607e+09 5.349068e+10
7.157444e-01 8.546951e+09 5.128605e+10
7.268348e-01 8.183443e+09 4.920255e+10
7.380971e-01 7.835395e+09 4.722153e+10
7.495340e-01 7.502150e+09 4.533288e+10
7.611480e-01 7.183079e+09 4.345750e+10
7.729420e-01 6.877579e+09 4.164228e+10
7.849188e-01 6.585072e+09 3.991765e+10
7.970811e-01 6.305006e+09 3.832340e+10
8.094319e-01 6.036851e+09 3.684723e+10
8.219740e-01 5.780101e+09 3.538826e+10
8.347105e-01 5.534272e+09 3.395119e+10
8.476444e-01 5.298898e+09 3.256925e+10
8.607786e-01 5.073534e+09 3.125309e+10
8.741164e-01 4.857756e+09 3.001396e+10
8.876609e-01 4.651155e+09 2.877156e+10
9.014152e-01 4.453341e+09 2.757886e+10
9.153826e-01 4.263940e+09 2.648373e+10
9.295665e-01 4.082595e+09 2.544764e+10
9.439702e-01 3.908962e+09 2.445157e+10
9.585970e-01 3.743620e+09 2.350750e+10
9.734505e-01 3.585910e+09 2.258706e+10
9.885341e-01 3.434845e+09 2.168388e+10
1.003851e+00 3.290143e+09 2.081976e+10
1.019406e+00 3.151538e+09 2.000506e+10
1.035202e+00 3.018771e+09 1.921178e+10
1.051242e+00 2.891598e+09 1.846273e+10
1.067531e+00 2.769783e+09 1.772238e+10
1.084073e+00 2.653100e+09 1.701836e+10
1.100870e+00 2.541332e+09 1.634205e+10
1.117928e+00 2.434273e+09 1.567777e+10
1.135251e+00 2.331724e+09 1.505119e+10
1.152842e+00 2.233495e+09 1.444000e+10
1.170705e+00 2.139404e+09 1.388538e+10
1.188845e+00 2.049278e+09 1.334278e+10
1.207266e+00 1.962948e+09 1.280260e+10
1.225973e+00 1.880255e+09 1.229922e+10
1.244969e+00 1.801046e+09 1.181955e+10
1.264260e+00 1.725173e+09 1.134600e+10
1.283850e+00 1.652497e+09 1.089276e+10
1.303743e+00 1.582883e+09 1.044583e+10
1.323945e+00 1.516202e+09 1.001828e+10
1.344459e+00 1.452329e+09 9.616598e+09
1.365291e+00 1.391148e+09 9.243380e+09
1.386447e+00 1.332543e+09 8.877761e+09
1.407930e+00 1.276408e+09 8.527668e+09
1.429746e+00 1.222638e+09 8.182362e+09
1.451900e+00 1.171132e+09 7.859865e+09
1.474397e+00 1.121797e+09 7.553335e+09
1.497243e+00 1.074540e+09 7.249313e+09
1.520442e+00 1.029273e+09 6.964233e+09
1.544002e+00 9.859140e+08 6.689318e+09
1.567926e+00 9.443813e+08 6.420393e+09
1.592221e+00 9.045982e+08 6.165337e+09
1.616892e+00 8.664911e+08 5.920674e+09
1.641946e+00 8.299893e+08 5.684978e+09
1.667388e+00 7.950252e+08 5.460897e+09
1.693224e+00 7.615341e+08 5.244816e+09
1.719461e+00 7.294538e+08 5.038050e+09
1.746104e+00 6.987250e+08 4.838185e+09
1.773160e+00 6.692907e+08 4.644943e+09
1.800635e+00 6.392516e+08 4.460900e+09
1.828536e+00 6.103078e+08 4.281369e+09
1.856869e+00 5.826753e+08 4.112284e+09
1.885641e+00 5.562947e+08 3.950485e+09
1.914859e+00 5.311093e+08 3.795908e+09
1.944530e+00 5.070648e+08 3.646445e+09
1.974661e+00 4.841096e+08 3.502924e+09
2.005258e+00 4.624426e+08 3.367057e+09
2.036330e+00 4.424985e+08 3.232470e+09
2.067883e+00 4.234152e+08 3.104866e+09
2.099924e+00 4.051554e+08 2.980569e+09
2.132463e+00 3.877891e+08 2.862443e+09
2.165505e+00 3.714088e+08 2.747600e+09
2.199060e+00 3.557207e+08 2.640228e+09
2.233134e+00 3.406955e+08 2.535348e+09
2.267737e+00 3.263053e+08 2.435514e+09
2.302875e+00 3.126106e+08 2.338327e+09
2.338559e+00 2.999229e+08 2.244371e+09
2.374795e+00 2.877503e+08 2.155350e+09
2.411592e+00 2.760720e+08 2.068024e+09
2.448960e+00 2.648679e+08 1.985214e+09
2.486906e+00 2.541187e+08 1.907399e+09
2.525441e+00 2.438060e+08 1.831505e+09
2.564573e+00 2.339119e+08 1.759698e+09
2.604311e+00 2.244196e+08 1.688456e+09
2.644665e+00 2.153127e+08 1.621315e+09
2.685644e+00 2.065755e+08 1.556659e+09
2.727258e+00 1.982097e+08 1.496699e+09
2.769517e+00 1.902323e+08 1.437665e+09
2.812431e+00 1.825760e+08 1.381618e+09
2.856009e+00 1.752278e+08 1.325509e+09
2.900263e+00 1.681753e+08 1.274457e+09
2.945203e+00 1.614067e+08 1.225499e+09
2.990839e+00 1.549105e+08 1.177476e+09
3.037182e+00 1.486758e+08 1.130509e+09
3.084243e+00 1.425472e+08 1.086119e+09
3.132033e+00 1.365894e+08 1.043050e+09
3.180564e+00 1.308806e+08 1.002003e+09
3.229847e+00 1.254105e+08 9.618544e+08
3.279894e+00 1.201690e+08 9.243137e+08
3.330716e+00 1.151466e+08 8.879153e+08
3.382325e+00 1.103342e+08 8.534791e+08
3.434734e+00 1.057230e+08 8.196968e+08
3.487956e+00 1.013045e+08 7.875110e+08
3.542002e+00 9.707066e+07 7.562810e+08
3.596885e+00 9.301383e+07 7.263500e+08
3.652619e+00 8.912657e+07 6.973779e+08
3.709216e+00 8.540180e+07 6.700283e+08
3.766690e+00 8.183272e+07 6.437711e+08
3.825055e+00 7.841283e+07 6.180892e+08
3.884325e+00 7.513588e+07 5.938599e+08
3.944512e+00 7.199591e+07 5.703340e+08
4.005633e+00 6.898718e+07 5.480825e+08
4.067700e+00 6.610420e+07 5.263734e+08
4.130729e+00 6.338666e+07 5.056809e+08
4.194735e+00 6.080337e+07 4.857363e+08
4.259732e+00 5.832538e+07 4.669880e+08
4.325737e+00 5.594840e+07 4.491764e+08
4.392764e+00 5.366830e+07 4.313622e+08
4.460830e+00 5.148115e+07 4.143572e+08
4.529951e+00 4.938314e+07 3.983063e+08
4.600143e+00 4.737065e+07 3.829182e+08
4.671422e+00 4.544019e+07 3.677356e+08
4.743806e+00 4.358841e+07 3.534368e+08
4.817311e+00 4.181212e+07 3.397106e+08
4.891955e+00 4.012375e+07 3.263367e+08
4.967756e+00 3.850981e+07 3.137802e+08
5.044732e+00 3.696080e+07 3.015151e+08
5.122900e+00 3.547411e+07 2.896186e+08
5.202279e+00 3.404724e+07 2.783022e+08
5.282889e+00 3.267778e+07 2.670224e+08
5.364747e+00 3.136342e+07 2.565901e+08
5.447874e+00 3.010194e+07 2.464865e+08
5.532289e+00 2.889121e+07 2.366215e+08
5.618012e+00 2.774788e+07 2.274564e+08
5.705063e+00 2.666617e+07 2.186117e+08
5.793463e+00 2.562664e+07 2.100421e+08
5.883233e+00 2.462764e+07 2.017578e+08
5.974393e+00 2.366760e+07 1.937309e+08
6.066967e+00 2.274499e+07 1.863200e+08
6.160975e+00 2.185836e+07 1.789787e+08
6.256439e+00 2.100630e+07 1.718801e+08
6.353383e+00 2.018746e+07 1.651611e+08
6.451828e+00 1.940056e+07 1.588556e+08
6.551800e+00 1.864433e+07 1.527231e+08
6.653320e+00 1.791759e+07 1.467149e+08
6.756413e+00 1.721919e+07 1.410111e+08
6.861104e+00 1.654802e+07 1.355608e+08
6.967417e+00 1.590301e+07 1.301808e+08
7.075377e+00 1.525361e+07 1.249094e+08
7.185010e+00 1.461502e+07 1.199624e+08
7.296342e+00 1.400316e+07 1.152336e+08
7.409399e+00 1.341693e+07 1.107347e+08
7.524208e+00 1.285524e+07 1.063808e+08
7.640795e+00 1.231707e+07 1.022682e+08
7.759190e+00 1.180143e+07 9.828789e+07
7.879418e+00 1.130739e+07 9.449501e+07
8.001510e+00 1.083403e+07 9.082421e+07
8.125494e+00 1.038049e+07 8.711504e+07
8.251398e+00 9.945943e+06 8.370171e+07
8.379254e+00 9.529590e+06 8.042558e+07
8.509090e+00 9.130668e+06 7.721667e+07
8.640939e+00 8.748450e+06 7.418420e+07
8.774830e+00 8.382235e+06 7.126250e+07
8.910797e+00 8.031352e+06 6.849871e+07
9.048869e+00 7.695161e+06 6.574744e+07
9.189082e+00 7.379893e+06 6.319223e+07
9.331467e+00 7.079031e+06 6.068421e+07
9.476058e+00 6.790438e+06 5.826590e+07
9.622890e+00 6.513612e+06 5.596276e+07
9.771997e+00 6.248074e+06 5.378724e+07
9.923414e+00 5.993363e+06 5.156940e+07
1.007718e+01 5.749038e+06 4.952214e+07
1.023332e+01 5.514675e+06 4.758163e+07
1.039189e+01 5.289868e+06 4.571120e+07
1.055291e+01 5.074227e+06 4.391174e+07
1.071643e+01 4.867379e+06 4.218204e+07
1.088248e+01 4.668964e+06 4.050218e+07
1.105110e+01 4.478639e+06 3.888323e+07
1.122234e+01 4.296075e+06 3.734391e+07
1.139623e+01 4.120953e+06 3.586519e+07
1.157282e+01 3.952972e+06 3.441123e+07
1.175214e+01 3.791840e+06 3.301331e+07
1.193424e+01 3.637277e+06 3.169256e+07
1.211916e+01 3.489015e+06 3.043845e+07
1.230694e+01 3.346798e+06 2.923385e+07
1.249764e+01 3.210380e+06 2.807202e+07
1.269129e+01 3.079523e+06 2.695090e+07
1.288794e+01 2.954000e+06 2.589223e+07
1.308764e+01 2.833596e+06 2.485962e+07
1.329044e+01 2.718100e+06 2.385487e+07
1.349637e+01 2.607312e+06 2.289293e+07
1.370550e+01 2.501041e+06 2.197809e+07
1.391787e+01 2.399102e+06 2.110343e+07
1.413352e+01 2.301319e+06 2.026147e+07
1.435252e+01 2.207523e+06 1.943833e+07
1.457491e+01 2.117550e+06 1.865045e+07
1.480075e+01 2.031244e+06 1.789363e+07
1.503009e+01 1.948458e+06 1.718581e+07
1.526298e+01 1.869045e+06 1.649757e+07
1.549948e+01 1.792870e+06 1.582596e+07
1.573965e+01 1.719801e+06 1.519252e+07
1.598353e+01 1.649710e+06 1.457732e+07
1.623120e+01 1.582476e+06 1.398176e+07
1.648270e+01 1.517982e+06 1.340736e+07
1.673810e+01 1.456118e+06 1.286804e+07
1.699746e+01 1.396775e+06 1.235116e+07
1.726083e+01 1.339852e+06 1.184797e+07
1.752829e+01 1.285248e+06 1.136653e+07
1.779989e+01 1.232871e+06 1.090141e+07
1.807570e+01 1.182628e+06 1.045198e+07
1.835578e+01 1.134433e+06 1.001485e+07
1.864021e+01 1.088203e+06 9.608436e+06
1.892904e+01 1.043857e+06 9.220130e+06
1.922234e+01 1.001319e+06 8.831925e+06
1.952019e+01 9.605139e+05 8.461439e+06
1.982266e+01 9.213724e+05 8.111359e+06
2.012981e+01 8.838263e+05 7.781133e+06
2.044172e+01 8.478105e+05 7.463525e+06
2.075847e+01 8.132626e+05 7.150764e+06
2.108012e+01 7.801228e+05 6.851015e+06
2.140676e+01 7.483337e+05 6.570351e+06
2.173846e+01 7.178403e+05 6.301050e+06
2.207529e+01 6.885896e+05 6.038096e+06
2.241735e+01 6.605310e+05 5.782394e+06
2.276471e+01 6.336161e+05 5.540129e+06
2.311745e+01 6.077980e+05 5.309977e+06
2.347565e+01 5.830322e+05 5.092248e+06
2.383941e+01 5.592756e+05 4.882413e+06
2.420880e+01 5.364873e+05 4.680232e+06
2.458392e+01 5.146277e+05 4.485565e+06
2.496485e+01 4.936589e+05 4.300759e+06
2.535168e+01 4.735447e+05 4.119201e+06
2.574450e+01 4.542502e+05 3.946136e+06
2.614341e+01 4.357421e+05 3.783346e+06
2.654850e+01 4.179881e+05 3.625197e+06
2.695987e+01 4.009577e+05 3.470336e+06
2.737762e+01 3.846213e+05 3.321034e+06
2.780183e+01 3.689506e+05 3.179498e+06
2.823262e+01 3.539185e+05 3.044477e+06
2.867009e+01 3.394990e+05 2.914636e+06
2.911433e+01 3.256671e+05 2.791594e+06
2.956546e+01 3.123988e+05 2.672868e+06
3.002358e+01 2.996712e+05 2.556291e+06
3.048879e+01 2.874623e+05 2.445794e+06
3.096122e+01 2.757508e+05 2.340022e+06
3.144096e+01 2.640357e+05 2.241800e+06
3.192814e+01 2.521729e+05 2.146392e+06
3.242287e+01 2.408434e+05 2.055673e+06
3.292526e+01 2.300233e+05 1.969220e+06
3.343544e+01 2.196896e+05 1.886281e+06
3.395352e+01 2.098205e+05 1.803591e+06
3.447963e+01 2.003950e+05 1.724558e+06
3.501389e+01 1.913931e+05 1.649248e+06
3.555643e+01 1.827960e+05 1.579131e+06
3.610738e+01 1.745852e+05 1.510997e+06
3.666687e+01 1.667435e+05 1.444949e+06
3.723502e+01 1.592570e+05 1.380826e+06
3.781198e+01 1.521230e+05 1.319766e+06
3.839787e+01 1.453088e+05 1.261394e+06
3.899285e+01 1.388002e+05 1.206242e+06
3.959704e+01 1.325834e+05 1.153206e+06
4.021060e+01 1.266454e+05 1.102761e+06
4.083367e+01 1.209778e+05 1.055359e+06
4.146638e+01 1.155651e+05 1.008786e+06
4.210891e+01 1.103948e+05 9.648374e+05
4.276138e+01 1.054562e+05 9.223217e+05
4.342397e+01 1.007388e+05 8.818309e+05
4.409683e+01 9.623263e+04 8.428704e+05
4.478011e+01 9.192830e+04 8.064288e+05
4.547398e+01 8.781672e+04 7.718699e+05
4.617860e+01 8.388927e+04 7.372809e+05
4.689414e+01 8.013769e+04 7.047970e+05
4.762076e+01 7.655408e+04 6.742662e+05
4.835865e+01 7.313093e+04 6.443188e+05
4.910796e+01 6.986104e+04 6.160204e+05
4.986889e+01 6.673754e+04 5.881377e+05
5.064161e+01 6.375387e+04 5.622800e+05
5.142630e+01 6.090375e+04 5.373289e+05
5.222315e+01 5.830949e+04 5.140230e+05
5.303235e+01 5.589960e+04 4.909284e+05
5.385409e+01 5.360265e+04 4.696598e+05
5.468856e+01 5.140008e+04 4.489479e+05
5.553596e+01 4.928802e+04 4.284456e+05
5.639649e+01 4.726275e+04 4.093330e+05
5.727036e+01 4.532069e+04 3.913741e+05
5.815776e+01 4.345844e+04 3.742857e+05
5.905892e+01 4.167271e+04 3.572685e+05
5.997404e+01 3.996035e+04 3.417878e+05
6.090333e+01 3.831836e+04 3.262683e+05
6.184703e+01 3.674384e+04 3.118016e+05
6.280535e+01 3.523401e+04 2.976356e+05
6.377852e+01 3.378623e+04 2.840538e+05
6.476677e+01 3.239794e+04 2.714714e+05
6.577033e+01 3.106669e+04 2.593460e+05
6.678945e+01 2.979015e+04 2.481120e+05
6.782435e+01 2.856605e+04 2.368260e+05
6.887529e+01 2.739226e+04 2.262812e+05
6.994251e+01 2.626670e+04 2.160679e+05
7.102627e+01 2.518739e+04 2.062384e+05
7.212683e+01 2.415243e+04 1.971191e+05
7.324443e+01 2.316000e+04 1.882817e+05
7.437936e+01 2.220834e+04 1.799611e+05
7.553187e+01 2.129579e+04 1.715246e+05
7.670223e+01 2.042074e+04 1.639174e+05
7.789074e+01 1.958165e+04 1.564379e+05
7.909765e+01 1.877703e+04 1.494373e+05
8.032327e+01 1.800547e+04 1.424929e+05
8.156788e+01 1.726562e+04 1.359478e+05
8.283178e+01 1.655617e+04 1.298093e+05
8.411526e+01 1.587587e+04 1.239265e+05
8.541863e+01 1.522353e+04 1.184354e+05
8.674219e+01 1.459799e+04 1.130567e+05
8.808626e+01 1.399815e+04 1.080448e+05
8.945116e+01 1.342297e+04 1.030333e+05
9.083721e+01 1.287141e+04 9.836622e+04
9.224473e+01 1.234252e+04 9.405391e+04
9.367406e+01 1.183537e+04 8.989152e+04
9.512555e+01 1.134905e+04 8.591341e+04
9.659952e+01 1.088271e+04 8.205724e+04
9.809633e+01 1.043554e+04 7.826546e+04
9.961633e+01 1.000674e+04 7.479401e+04
1.011599e+02 9.595562e+03 7.145522e+04
1.027274e+02 9.201279e+03 6.814062e+04
1.043191e+02 8.823197e+03 6.500500e+04
1.059356e+02 8.460650e+03 6.222695e+04
1.075770e+02 8.113001e+03 5.943347e+04
1.092439e+02 7.779636e+03 5.677509e+04
1.109367e+02 7.459970e+03 5.415280e+04
1.126556e+02 7.153439e+03 5.174553e+04
1.144012e+02 6.859503e+03 4.940563e+04
1.161739e+02 6.577646e+03 4.719703e+04
1.179740e+02 6.307369e+03 4.505496e+04
1.198020e+02 6.048199e+03 4.301351e+04
1.216583e+02 5.799678e+03 4.103538e+04
1.235434e+02 5.561369e+03 3.922566e+04
1.254578e+02 5.332852e+03 3.745645e+04
1.274017e+02 5.113725e+03 3.577652e+04
1.293758e+02 4.903602e+03 3.419896e+04
1.313805e+02 4.702113e+03 3.266578e+04
1.334162e+02 4.508903e+03 3.119929e+04
1.354835e+02 4.323632e+03 2.977500e+04
1.375828e+02 4.145974e+03 2.843242e+04
1.397147e+02 3.975616e+03 2.716328e+04
1.418796e+02 3.812258e+03 2.594373e+04
1.440780e+02 3.655613e+03 2.475684e+04
1.463105e+02 3.505404e+03 2.365343e+04
1.485776e+02 3.361367e+03 2.258594e+04
1.508798e+02 3.223249e+03 2.156470e+04
1.532177e+02 3.090805e+03 2.059805e+04
1.555918e+02 2.963805e+03 1.969792e+04
1.580027e+02 2.842022e+03 1.882794e+04
1.604509e+02 2.725244e+03 1.797926e+04
1.629371e+02 2.608681e+03 1.716604e+04
1.654618e+02 2.494344e+03 1.637576e+04
1.680257e+02 2.385020e+03 1.565638e+04
1.706292e+02 2.280492e+03 1.495660e+04
1.732731e+02 2.180547e+03 1.428917e+04
1.759580e+02 2.081000e+03 1.365101e+04
1.786845e+02 1.984493e+03 1.303780e+04
1.814532e+02 1.896183e+03 1.244823e+04
1.842648e+02 1.808495e+03 1.188251e+04
1.871200e+02 1.724864e+03 1.134286e+04
1.900194e+02 1.645655e+03 1.082664e+04
1.929638e+02 1.571722e+03 1.033498e+04
1.959538e+02 1.501701e+03 9.862751e+03
1.989901e+02 1.440222e+03 9.418729e+03
2.020734e+02 1.381267e+03 8.988388e+03
2.052045e+02 1.324433e+03 8.586257e+03
2.083842e+02 1.266433e+03 8.197051e+03
2.116131e+02 1.210974e+03 7.828003e+03
2.148921e+02 1.157946e+03 7.476087e+03
2.182218e+02 1.107646e+03 7.149963e+03
2.216032e+02 1.061543e+03 6.833859e+03
2.250369e+02 1.017360e+03 6.527459e+03
2.285239e+02 9.750181e+02 6.234362e+03
2.320648e+02 9.344397e+02 5.955620e+03
2.356607e+02 8.955513e+02 5.688137e+03
2.393123e+02 8.582826e+02 5.437918e+03
2.430204e+02 8.227810e+02 5.192847e+03
2.467860e+02 7.889532e+02 4.955579e+03
2.506100e+02 7.565162e+02 4.733605e+03
2.544932e+02 7.254127e+02 4.520465e+03
