# Energy(MeV) Fluence_Sferico_Median
1.800000e+00 3.968222e+09
1.822942e+00 3.841798e+09
1.846177e+00 3.718629e+09
1.869708e+00 3.596577e+09
1.893539e+00 3.474815e+09
1.917674e+00 3.357911e+09
1.942116e+00 3.244081e+09
1.966870e+00 3.143584e+09
1.991940e+00 3.045184e+09
2.017328e+00 2.947315e+09
2.043041e+00 2.850172e+09
2.069081e+00 2.754837e+09
2.095453e+00 2.666267e+09
2.122162e+00 2.577380e+09
2.149210e+00 2.491581e+09
2.176604e+00 2.409213e+09
2.204346e+00 2.328730e+09
2.232442e+00 2.251052e+09
2.260897e+00 2.175245e+09
2.289714e+00 2.102142e+09
2.318898e+00 2.031083e+09
2.348454e+00 1.962721e+09
2.378387e+00 1.896518e+09
2.408702e+00 1.832221e+09
2.439402e+00 1.770141e+09
2.470495e+00 1.710121e+09
2.501983e+00 1.651786e+09
2.533873e+00 1.595524e+09
2.566169e+00 1.541622e+09
2.598877e+00 1.489301e+09
2.632002e+00 1.438784e+09
2.665549e+00 1.389925e+09
2.699523e+00 1.342669e+09
2.733931e+00 1.296838e+09
2.768777e+00 1.252740e+09
2.804067e+00 1.210142e+09
2.839808e+00 1.169196e+09
2.876003e+00 1.129669e+09
2.912660e+00 1.091479e+09
2.949784e+00 1.054579e+09
2.987382e+00 1.018927e+09
3.025458e+00 9.844809e+08
3.064020e+00 9.512216e+08
3.103074e+00 9.191637e+08
3.142625e+00 8.877393e+08
3.182680e+00 8.576580e+08
3.223246e+00 8.284146e+08
3.264329e+00 7.999360e+08
3.305936e+00 7.732490e+08
3.348072e+00 7.473892e+08
3.390746e+00 7.222874e+08
3.433964e+00 6.980287e+08
3.477733e+00 6.745180e+08
3.522059e+00 6.517041e+08
3.566951e+00 6.296618e+08
3.612415e+00 6.083513e+08
3.658458e+00 5.877214e+08
3.705088e+00 5.678088e+08
3.752312e+00 5.484822e+08
3.800138e+00 5.296169e+08
3.848574e+00 5.114514e+08
3.897627e+00 4.940570e+08
3.947306e+00 4.771185e+08
3.997617e+00 4.607926e+08
4.048570e+00 4.450927e+08
4.100173e+00 4.298902e+08
4.152433e+00 4.153533e+08
4.205359e+00 4.012434e+08
4.258959e+00 3.876437e+08
4.313243e+00 3.744033e+08
4.368219e+00 3.617184e+08
4.423896e+00 3.494378e+08
4.480282e+00 3.375079e+08
4.537387e+00 3.260854e+08
4.595219e+00 3.151015e+08
4.653789e+00 3.045529e+08
4.713105e+00 2.943378e+08
4.773178e+00 2.844653e+08
4.834016e+00 2.749218e+08
4.895629e+00 2.655763e+08
4.958028e+00 2.566634e+08
5.021222e+00 2.480365e+08
5.085222e+00 2.396067e+08
5.150037e+00 2.315180e+08
5.215678e+00 2.236826e+08
5.282156e+00 2.161763e+08
5.349482e+00 2.088520e+08
5.417665e+00 2.017322e+08
5.486718e+00 1.948817e+08
5.556650e+00 1.883058e+08
5.627475e+00 1.819813e+08
5.699201e+00 1.757889e+08
5.771842e+00 1.698247e+08
5.845409e+00 1.640921e+08
5.919913e+00 1.585432e+08
5.995368e+00 1.531642e+08
6.071783e+00 1.479875e+08
6.149173e+00 1.429858e+08
6.227549e+00 1.381107e+08
6.306925e+00 1.334128e+08
6.387311e+00 1.289119e+08
6.468723e+00 1.245727e+08
6.551172e+00 1.203797e+08
6.634672e+00 1.163278e+08
6.719236e+00 1.124124e+08
6.804878e+00 1.086243e+08
6.891612e+00 1.049625e+08
6.979451e+00 1.014136e+08
7.068410e+00 9.792194e+07
7.158503e+00 9.459051e+07
7.249744e+00 9.138828e+07
7.342148e+00 8.829581e+07
7.435729e+00 8.529308e+07
7.530504e+00 8.240628e+07
7.626486e+00 7.964104e+07
7.723692e+00 7.695478e+07
7.822136e+00 7.436106e+07
7.921836e+00 7.183059e+07
8.022806e+00 6.938240e+07
8.125063e+00 6.703483e+07
8.228624e+00 6.477235e+07
8.333504e+00 6.256283e+07
8.439722e+00 6.043719e+07
8.547293e+00 5.839722e+07
8.656235e+00 5.641823e+07
8.766566e+00 5.450520e+07
8.878303e+00 5.266875e+07
8.991464e+00 5.087359e+07
9.106067e+00 4.915760e+07
9.222132e+00 4.750103e+07
9.339675e+00 4.589045e+07
9.458717e+00 4.431831e+07
9.579276e+00 4.280328e+07
9.701372e+00 4.134532e+07
9.825023e+00 3.992842e+07
9.950251e+00 3.856028e+07
1.007708e+01 3.724747e+07
1.020552e+01 3.598247e+07
1.033559e+01 3.476043e+07
1.046733e+01 3.357213e+07
1.060074e+01 3.242842e+07
1.073586e+01 3.132846e+07
1.087270e+01 3.026780e+07
1.101128e+01 2.925056e+07
1.115162e+01 2.825829e+07
1.129376e+01 2.730279e+07
1.143771e+01 2.637843e+07
1.158349e+01 2.548554e+07
1.173113e+01 2.462861e+07
1.188066e+01 2.379483e+07
1.203208e+01 2.298487e+07
1.218544e+01 2.220538e+07
1.234076e+01 2.145360e+07
1.249805e+01 2.072659e+07
1.265735e+01 2.002074e+07
1.281868e+01 1.932811e+07
1.298206e+01 1.866893e+07
1.314753e+01 1.803718e+07
1.331510e+01 1.742984e+07
1.348482e+01 1.683618e+07
1.365669e+01 1.625950e+07
1.383076e+01 1.570509e+07
1.400704e+01 1.517636e+07
1.418557e+01 1.466245e+07
1.436638e+01 1.415841e+07
1.454949e+01 1.367169e+07
1.473493e+01 1.320643e+07
1.492274e+01 1.275991e+07
1.511294e+01 1.232830e+07
1.530557e+01 1.191050e+07
1.550065e+01 1.150779e+07
1.569822e+01 1.111345e+07
1.589831e+01 1.073600e+07
1.610095e+01 1.037503e+07
1.630616e+01 1.002170e+07
1.651400e+01 9.676799e+06
1.672448e+01 9.345566e+06
1.693765e+01 9.026221e+06
1.715354e+01 8.719288e+06
1.737217e+01 8.426789e+06
1.759359e+01 8.138451e+06
1.781784e+01 7.859685e+06
1.804494e+01 7.595358e+06
1.827494e+01 7.337485e+06
1.850787e+01 7.088587e+06
1.874377e+01 6.846458e+06
1.898267e+01 6.612441e+06
1.922462e+01 6.384308e+06
1.946965e+01 6.163948e+06
1.971781e+01 5.956309e+06
1.996913e+01 5.756373e+06
2.022365e+01 5.559543e+06
2.048142e+01 5.368586e+06
2.074247e+01 5.184068e+06
2.100685e+01 5.007540e+06
2.127460e+01 4.837338e+06
2.154576e+01 4.672922e+06
2.182038e+01 4.514095e+06
2.209850e+01 4.360093e+06
2.238016e+01 4.211054e+06
2.266542e+01 4.067852e+06
2.295430e+01 3.930494e+06
2.324688e+01 3.797887e+06
2.354318e+01 3.669356e+06
2.384325e+01 3.544086e+06
2.414715e+01 3.423094e+06
2.445493e+01 3.306232e+06
2.476663e+01 3.193361e+06
2.508230e+01 3.085760e+06
2.540199e+01 2.981044e+06
2.572576e+01 2.879649e+06
2.605366e+01 2.782481e+06
2.638573e+01 2.688798e+06
2.672204e+01 2.597500e+06
2.706263e+01 2.508635e+06
2.740757e+01 2.422982e+06
2.775690e+01 2.339930e+06
2.811069e+01 2.259945e+06
2.846898e+01 2.183457e+06
2.883184e+01 2.108978e+06
2.919932e+01 2.037261e+06
2.957149e+01 1.968951e+06
2.994841e+01 1.901239e+06
3.033012e+01 1.835650e+06
3.071671e+01 1.771808e+06
3.110821e+01 1.710957e+06
3.150471e+01 1.652196e+06
3.190627e+01 1.595887e+06
3.231294e+01 1.541727e+06
3.272479e+01 1.489381e+06
3.314190e+01 1.438672e+06
3.356432e+01 1.389259e+06
3.399212e+01 1.342104e+06
3.442538e+01 1.296640e+06
3.486416e+01 1.252932e+06
3.530853e+01 1.210510e+06
3.575857e+01 1.169582e+06
3.621434e+01 1.129662e+06
3.667592e+01 1.091289e+06
3.714338e+01 1.054541e+06
3.761681e+01 1.018764e+06
3.809626e+01 9.835047e+05
3.858183e+01 9.496264e+05
3.907359e+01 9.172565e+05
3.957161e+01 8.859901e+05
4.007598e+01 8.556380e+05
4.058679e+01 8.266093e+05
4.110410e+01 7.985002e+05
4.162800e+01 7.713583e+05
4.215858e+01 7.451390e+05
4.269593e+01 7.198109e+05
4.324012e+01 6.952563e+05
4.379126e+01 6.713904e+05
4.434941e+01 6.485488e+05
4.491468e+01 6.268201e+05
4.548715e+01 6.054458e+05
4.606692e+01 5.847894e+05
4.665408e+01 5.647194e+05
4.724873e+01 5.455381e+05
4.785095e+01 5.269533e+05
4.846085e+01 5.090608e+05
4.907852e+01 4.915702e+05
4.970407e+01 4.747645e+05
5.033759e+01 4.585859e+05
5.097918e+01 4.429571e+05
5.162895e+01 4.278419e+05
5.228701e+01 4.133078e+05
5.295345e+01 3.993199e+05
5.362838e+01 3.857661e+05
5.431192e+01 3.727384e+05
5.500417e+01 3.600765e+05
5.570524e+01 3.478510e+05
5.641525e+01 3.360727e+05
5.713431e+01 3.247091e+05
5.786253e+01 3.136463e+05
5.860004e+01 3.028868e+05
5.934694e+01 2.925214e+05
6.010337e+01 2.826926e+05
6.086943e+01 2.730672e+05
6.164526e+01 2.637695e+05
6.243098e+01 2.547883e+05
6.322671e+01 2.461719e+05
6.403259e+01 2.379522e+05
6.484874e+01 2.299761e+05
6.567529e+01 2.221249e+05
6.651237e+01 2.144507e+05
6.736013e+01 2.070826e+05
6.821869e+01 1.999742e+05
6.908819e+01 1.932483e+05
6.996877e+01 1.866618e+05
7.086058e+01 1.802395e+05
7.176376e+01 1.740542e+05
7.267845e+01 1.681278e+05
7.360479e+01 1.624188e+05
7.454294e+01 1.569223e+05
7.549305e+01 1.515967e+05
7.645527e+01 1.463948e+05
7.742976e+01 1.414236e+05
7.841666e+01 1.366296e+05
7.941615e+01 1.319657e+05
8.042837e+01 1.274351e+05
8.145350e+01 1.230962e+05
8.249169e+01 1.189531e+05
8.354311e+01 1.149120e+05
8.460794e+01 1.110082e+05
8.568633e+01 1.072245e+05
8.677847e+01 1.035828e+05
8.788454e+01 1.000042e+05
8.900470e+01 9.657434e+04
9.013913e+01 9.324061e+04
9.128803e+01 9.003474e+04
9.245157e+01 8.692733e+04
9.362994e+01 8.388273e+04
9.482333e+01 8.097221e+04
9.603193e+01 7.820942e+04
9.725594e+01 7.556626e+04
9.849554e+01 7.300843e+04
9.975095e+01 7.048341e+04
1.010224e+02 6.804223e+04
1.023100e+02 6.572169e+04
1.036140e+02 6.349390e+04
1.049346e+02 6.131213e+04
1.062721e+02 5.920054e+04
1.076266e+02 5.717136e+04
1.089984e+02 5.523522e+04
1.103877e+02 5.333808e+04
1.117947e+02 5.151650e+04
1.132196e+02 4.977064e+04
1.146627e+02 4.808110e+04
1.161241e+02 4.644145e+04
1.176042e+02 4.484584e+04
1.191032e+02 4.332314e+04
1.206213e+02 4.184764e+04
1.221587e+02 4.042233e+04
1.237157e+02 3.905337e+04
1.252925e+02 3.772626e+04
1.268895e+02 3.644279e+04
1.285068e+02 3.520298e+04
1.301447e+02 3.401031e+04
1.318035e+02 3.285115e+04
1.334835e+02 3.172844e+04
1.351848e+02 3.064519e+04
1.369079e+02 2.959166e+04
1.386529e+02 2.857796e+04
1.404201e+02 2.760186e+04
1.422099e+02 2.666089e+04
1.440225e+02 2.576102e+04
1.458582e+02 2.488323e+04
1.477172e+02 2.403049e+04
1.496000e+02 2.320173e+04
1.515068e+02 2.239891e+04
1.534379e+02 2.163378e+04
1.553935e+02 2.089063e+04
1.573742e+02 2.017974e+04
1.593800e+02 1.950225e+04
1.614115e+02 1.883802e+04
1.634688e+02 1.819259e+04
1.655523e+02 1.757348e+04
1.676624e+02 1.697101e+04
1.697994e+02 1.638802e+04
1.719636e+02 1.583432e+04
1.741555e+02 1.529580e+04
1.763752e+02 1.477579e+04
1.786233e+02 1.427863e+04
1.809000e+02 1.379490e+04
1.832057e+02 1.332460e+04
1.855408e+02 1.286477e+04
1.879056e+02 1.242633e+04
1.903007e+02 1.200575e+04
1.927262e+02 1.160122e+04
1.951826e+02 1.121032e+04
1.976704e+02 1.083247e+04
2.001899e+02 1.046539e+04
2.027415e+02 1.011047e+04
2.053256e+02 9.764119e+03
2.079426e+02 9.428577e+03
2.105930e+02 9.106725e+03
2.132772e+02 8.796506e+03
2.159956e+02 8.496258e+03
2.187486e+02 8.203269e+03
2.215367e+02 7.923191e+03
2.243604e+02 7.653195e+03
2.272201e+02 7.392006e+03
2.301162e+02 7.139051e+03
2.330492e+02 6.896196e+03
2.360196e+02 6.659457e+03
2.390278e+02 6.431254e+03
2.420744e+02 6.212187e+03
2.451599e+02 5.999311e+03
2.482846e+02 5.792113e+03
2.514492e+02 5.591189e+03
2.546542e+02 5.397234e+03
2.578999e+02 5.211561e+03
2.611871e+02 5.033314e+03
2.645161e+02 4.862903e+03
2.678876e+02 4.696103e+03
2.713020e+02 4.537506e+03
2.747600e+02 4.384583e+03
2.782620e+02 4.235984e+03
2.818087e+02 4.091497e+03
2.854006e+02 3.952398e+03
2.890383e+02 3.818862e+03
2.927223e+02 3.689220e+03
2.964533e+02 3.564318e+03
3.002318e+02 3.443226e+03
3.040585e+02 3.326028e+03
3.079340e+02 3.212850e+03
3.118588e+02 3.104395e+03
3.158337e+02 2.998127e+03
3.198593e+02 2.894887e+03
3.239362e+02 2.795509e+03
3.280650e+02 2.699924e+03
3.322464e+02 2.607924e+03
3.364812e+02 2.519173e+03
3.407699e+02 2.433448e+03
3.451133e+02 2.350997e+03
3.495121e+02 2.270131e+03
3.539669e+02 2.192698e+03
3.584785e+02 2.117907e+03
3.630476e+02 2.045667e+03
3.676749e+02 1.976448e+03
3.723612e+02 1.909843e+03
3.771073e+02 1.845318e+03
3.819138e+02 1.783246e+03
3.867816e+02 1.723032e+03
3.917114e+02 1.665332e+03
3.967041e+02 1.608272e+03
4.017604e+02 1.552896e+03
4.068812e+02 1.499677e+03
4.120672e+02 1.448868e+03
4.173194e+02 1.399703e+03
4.226384e+02 1.352090e+03
4.280253e+02 1.305775e+03
4.334808e+02 1.261082e+03
4.390059e+02 1.218258e+03
4.446014e+02 1.176889e+03
4.502682e+02 1.137255e+03
4.560072e+02 1.098494e+03
4.618194e+02 1.060693e+03
4.677057e+02 1.024390e+03
4.736670e+02 9.895267e+02
4.797042e+02 9.559279e+02
4.858185e+02 9.233204e+02
4.920106e+02 8.918251e+02
4.982817e+02 8.613216e+02
5.046327e+02 8.317760e+02
5.110646e+02 8.033379e+02
5.175786e+02 7.759529e+02
5.241755e+02 7.495014e+02
5.308566e+02 7.238983e+02
5.376228e+02 6.990135e+02
5.444752e+02 6.749841e+02
5.514150e+02 6.517808e+02
5.584432e+02 6.293752e+02
5.655610e+02 6.077398e+02
5.727696e+02 5.870443e+02
5.800700e+02 5.670821e+02
5.874635e+02 5.477987e+02
5.949511e+02 5.290099e+02
6.025343e+02 5.107733e+02
6.102141e+02 4.934470e+02
6.179917e+02 4.767665e+02
6.258686e+02 4.607825e+02
6.338458e+02 4.452706e+02
6.419246e+02 4.301616e+02
6.501065e+02 4.155654e+02
6.583926e+02 4.014645e+02
6.667844e+02 3.877377e+02
6.752831e+02 3.744793e+02
6.838901e+02 3.617096e+02
6.926068e+02 3.494548e+02
7.014347e+02 3.376152e+02
7.103750e+02 3.261776e+02
7.194293e+02 3.152350e+02
7.285991e+02 3.045549e+02
7.378856e+02 2.942686e+02
7.472906e+02 2.844262e+02
7.568154e+02 2.748088e+02
7.664616e+02 2.652172e+02
7.762308e+02 2.559603e+02
7.861245e+02 2.470685e+02
7.961443e+02 2.385783e+02
8.062918e+02 2.305143e+02
8.165687e+02 2.226672e+02
8.269765e+02 2.151265e+02
8.375170e+02 2.077863e+02
8.481918e+02 2.007131e+02
8.590027e+02 1.939275e+02
8.699514e+02 1.873713e+02
8.810396e+02 1.810367e+02
8.922692e+02 1.748794e+02
9.036419e+02 1.689301e+02
9.151595e+02 1.631831e+02
9.268240e+02 1.575978e+02
9.386371e+02 1.521964e+02
9.506008e+02 1.469753e+02
9.627170e+02 1.419275e+02
9.749876e+02 1.370530e+02
9.874146e+02 1.323460e+02
1.000000e+03 1.278516e+02
