# Energy(MeV) Planare_Fluence(cm^-2*MeV^-1)
5.000000e-02 1.903997e+11
5.100225e-02 1.865342e+11
5.202458e-02 1.828576e+11
5.306741e-02 1.792586e+11
5.413114e-02 1.757021e+11
5.521620e-02 1.721966e+11
5.632300e-02 1.687989e+11
5.745199e-02 1.655294e+11
5.860361e-02 1.621582e+11
5.977832e-02 1.589600e+11
6.097657e-02 1.558083e+11
6.219884e-02 1.527336e+11
6.344561e-02 1.497273e+11
6.471737e-02 1.467429e+11
6.601463e-02 1.437758e+11
6.733789e-02 1.408175e+11
6.868767e-02 1.379942e+11
7.006451e-02 1.353044e+11
7.146895e-02 1.326456e+11
7.290154e-02 1.300316e+11
7.436284e-02 1.274369e+11
7.585344e-02 1.248870e+11
7.737392e-02 1.224087e+11
7.892487e-02 1.199302e+11
8.050691e-02 1.175258e+11
8.212067e-02 1.151709e+11
8.376677e-02 1.128617e+11
8.544587e-02 1.106019e+11
8.715862e-02 1.083976e+11
8.890571e-02 1.061914e+11
9.068782e-02 1.040844e+11
9.250565e-02 1.019705e+11
9.435992e-02 9.995311e+10
9.625136e-02 9.793640e+10
9.818071e-02 9.602794e+10
1.001487e-01 9.409291e+10
1.021562e-01 9.218163e+10
1.042039e-01 9.035239e+10
1.062927e-01 8.854990e+10
1.084233e-01 8.677518e+10
1.105966e-01 8.504296e+10
1.128135e-01 8.332102e+10
1.150749e-01 8.164397e+10
1.173816e-01 7.998811e+10
1.197345e-01 7.835436e+10
1.221345e-01 7.679459e+10
1.245827e-01 7.523660e+10
1.270800e-01 7.371969e+10
1.296273e-01 7.221489e+10
1.322256e-01 7.074526e+10
1.348761e-01 6.933227e+10
1.375797e-01 6.793035e+10
1.403374e-01 6.655901e+10
1.431505e-01 6.524010e+10
1.460199e-01 6.393135e+10
1.489469e-01 6.266528e+10
1.519325e-01 6.141487e+10
1.549780e-01 6.018053e+10
1.580845e-01 5.897077e+10
1.612533e-01 5.778510e+10
1.644856e-01 5.662398e+10
1.677827e-01 5.548049e+10
1.711459e-01 5.436733e+10
1.745765e-01 5.326617e+10
1.780759e-01 5.219860e+10
1.816454e-01 5.115808e+10
1.852865e-01 5.012757e+10
1.890005e-01 4.910656e+10
1.927890e-01 4.814009e+10
1.966535e-01 4.717286e+10
2.005954e-01 4.622367e+10
2.046163e-01 4.529044e+10
2.087178e-01 4.436839e+10
2.129015e-01 4.348316e+10
2.171691e-01 4.260450e+10
2.215223e-01 4.174716e+10
2.259627e-01 4.091699e+10
2.304921e-01 4.008795e+10
2.351123e-01 3.929372e+10
2.398251e-01 3.851565e+10
2.446324e-01 3.774480e+10
2.495360e-01 3.697665e+10
2.545379e-01 3.620060e+10
2.596401e-01 3.548172e+10
2.648446e-01 3.476311e+10
2.701534e-01 3.404930e+10
2.755686e-01 3.336131e+10
2.810923e-01 3.268611e+10
2.867268e-01 3.204903e+10
2.924742e-01 3.141710e+10
2.983368e-01 3.078486e+10
3.043170e-01 3.017613e+10
3.104170e-01 2.957512e+10
3.166393e-01 2.900231e+10
3.229863e-01 2.842749e+10
3.294605e-01 2.784276e+10
3.360645e-01 2.728020e+10
3.428009e-01 2.671777e+10
3.496723e-01 2.616979e+10
3.566815e-01 2.564691e+10
3.638311e-01 2.510640e+10
3.711241e-01 2.459240e+10
3.785633e-01 2.409578e+10
3.861515e-01 2.359885e+10
3.938919e-01 2.312160e+10
4.017874e-01 2.265294e+10
4.098412e-01 2.217968e+10
4.180565e-01 2.173211e+10
4.264364e-01 2.127700e+10
4.349843e-01 2.084051e+10
4.437035e-01 2.041683e+10
4.525975e-01 2.000974e+10
4.616698e-01 1.959257e+10
4.709239e-01 1.919445e+10
4.803635e-01 1.880322e+10
4.899924e-01 1.842477e+10
4.998143e-01 1.803594e+10
5.098330e-01 1.765803e+10
5.200526e-01 1.729238e+10
5.304770e-01 1.693492e+10
5.411103e-01 1.659046e+10
5.519569e-01 1.625300e+10
5.630208e-01 1.592191e+10
5.743065e-01 1.559394e+10
5.858184e-01 1.526405e+10
5.975611e-01 1.495412e+10
6.095392e-01 1.465768e+10
6.217573e-01 1.435424e+10
6.342204e-01 1.405813e+10
6.469333e-01 1.376506e+10
6.599011e-01 1.347588e+10
6.731287e-01 1.320461e+10
6.866215e-01 1.292455e+10
7.003848e-01 1.264839e+10
7.144240e-01 1.239197e+10
7.287445e-01 1.213538e+10
7.433522e-01 1.188786e+10
7.582526e-01 1.164307e+10
7.734517e-01 1.139944e+10
7.889555e-01 1.116184e+10
8.047701e-01 1.092211e+10
8.209016e-01 1.069197e+10
8.373565e-01 1.046739e+10
8.541413e-01 1.024741e+10
8.712625e-01 1.003136e+10
8.887268e-01 9.816825e+09
9.065413e-01 9.606254e+09
9.247129e-01 9.410693e+09
9.432487e-01 9.215565e+09
9.621560e-01 9.015741e+09
9.814423e-01 8.824269e+09
1.001115e+00 8.642677e+09
1.021183e+00 8.464477e+09
1.041652e+00 8.279253e+09
1.062532e+00 8.105539e+09
1.083830e+00 7.931757e+09
1.105556e+00 7.763728e+09
1.127716e+00 7.601645e+09
1.150321e+00 7.439891e+09
1.173379e+00 7.279591e+09
1.196900e+00 7.122967e+09
1.220892e+00 6.974062e+09
1.245364e+00 6.818682e+09
1.270327e+00 6.672293e+09
1.295791e+00 6.526176e+09
1.321765e+00 6.389998e+09
1.348260e+00 6.254712e+09
1.375286e+00 6.115240e+09
1.402853e+00 5.984395e+09
1.430973e+00 5.857017e+09
1.459657e+00 5.731950e+09
1.488916e+00 5.608264e+09
1.518761e+00 5.485977e+09
1.549204e+00 5.368306e+09
1.580258e+00 5.249674e+09
1.611934e+00 5.135628e+09
1.644245e+00 5.023725e+09
1.677204e+00 4.916095e+09
1.710823e+00 4.808894e+09
1.745117e+00 4.703654e+09
1.780097e+00 4.597804e+09
1.815779e+00 4.496192e+09
1.852176e+00 4.397352e+09
1.889303e+00 4.302287e+09
1.927174e+00 4.209733e+09
1.965804e+00 4.116448e+09
2.005209e+00 4.023189e+09
2.045403e+00 3.934196e+09
2.086403e+00 3.847686e+09
2.128224e+00 3.760936e+09
2.170885e+00 3.677257e+09
2.214400e+00 3.594236e+09
2.258787e+00 3.512311e+09
2.304064e+00 3.432938e+09
2.350249e+00 3.354881e+09
2.397360e+00 3.278482e+09
2.445415e+00 3.203359e+09
2.494433e+00 3.129735e+09
2.544434e+00 3.057533e+09
2.595437e+00 2.987546e+09
2.647462e+00 2.918192e+09
2.700530e+00 2.849915e+09
2.754662e+00 2.784442e+09
2.809879e+00 2.719639e+09
2.866203e+00 2.657386e+09
2.923656e+00 2.596563e+09
2.982260e+00 2.538121e+09
3.042039e+00 2.478097e+09
3.103017e+00 2.418803e+09
3.165216e+00 2.362250e+09
3.228663e+00 2.307026e+09
3.293381e+00 2.252295e+09
3.359397e+00 2.198384e+09
3.426736e+00 2.145172e+09
3.495424e+00 2.094110e+09
3.565490e+00 2.043451e+09
3.636960e+00 1.994784e+09
3.709862e+00 1.945541e+09
3.784226e+00 1.897958e+09
3.860081e+00 1.852152e+09
3.937456e+00 1.806903e+09
4.016382e+00 1.762140e+09
4.096890e+00 1.718015e+09
4.179012e+00 1.675820e+09
4.262780e+00 1.633451e+09
4.348227e+00 1.592425e+09
4.435387e+00 1.551991e+09
4.524294e+00 1.512061e+09
4.614983e+00 1.473553e+09
4.707490e+00 1.435725e+09
4.801851e+00 1.398932e+09
4.898104e+00 1.362645e+09
4.996286e+00 1.326930e+09
5.096436e+00 1.291825e+09
5.198594e+00 1.257734e+09
5.302799e+00 1.224513e+09
5.409093e+00 1.192418e+09
5.517518e+00 1.160961e+09
5.628116e+00 1.130251e+09
5.740932e+00 1.099791e+09
5.856008e+00 1.070050e+09
5.973391e+00 1.040533e+09
6.093127e+00 1.012129e+09
6.215264e+00 9.839410e+08
6.339848e+00 9.563772e+08
6.466930e+00 9.295155e+08
6.596559e+00 9.034572e+08
6.728787e+00 8.779739e+08
6.863665e+00 8.536203e+08
7.001246e+00 8.299127e+08
7.141586e+00 8.065487e+08
7.284738e+00 7.831976e+08
7.430760e+00 7.607741e+08
7.579709e+00 7.390062e+08
7.731644e+00 7.175423e+08
7.886624e+00 6.967225e+08
8.044711e+00 6.758972e+08
8.205967e+00 6.559288e+08
8.370455e+00 6.361443e+08
8.538240e+00 6.169860e+08
8.709388e+00 5.983388e+08
8.883967e+00 5.799337e+08
9.062045e+00 5.621317e+08
9.243693e+00 5.447442e+08
9.428983e+00 5.279826e+08
9.617986e+00 5.109773e+08
9.810778e+00 4.943230e+08
1.000743e+01 4.786621e+08
1.020803e+01 4.632156e+08
1.041265e+01 4.480707e+08
1.062137e+01 4.331322e+08
1.083428e+01 4.186416e+08
1.105145e+01 4.042977e+08
1.127297e+01 3.905734e+08
1.149894e+01 3.773806e+08
1.172944e+01 3.644866e+08
1.196455e+01 3.516799e+08
1.220438e+01 3.392810e+08
1.244902e+01 3.277554e+08
1.269856e+01 3.161667e+08
1.295310e+01 3.048241e+08
1.321274e+01 2.937847e+08
1.347759e+01 2.832490e+08
1.374775e+01 2.727947e+08
1.402332e+01 2.627380e+08
1.430442e+01 2.527211e+08
1.459115e+01 2.431672e+08
1.488362e+01 2.335719e+08
1.518197e+01 2.245914e+08
1.548629e+01 2.158468e+08
1.579671e+01 2.072751e+08
1.611335e+01 1.989471e+08
1.643634e+01 1.908768e+08
1.676581e+01 1.832003e+08
1.710188e+01 1.757239e+08
1.744468e+01 1.684492e+08
1.779436e+01 1.613119e+08
1.815105e+01 1.544344e+08
1.851488e+01 1.478944e+08
1.888601e+01 1.417848e+08
1.926458e+01 1.355650e+08
1.965074e+01 1.295037e+08
2.004464e+01 1.238439e+08
2.044643e+01 1.182087e+08
2.085628e+01 1.127308e+08
2.127434e+01 1.074890e+08
2.170078e+01 1.025972e+08
2.213577e+01 9.782264e+07
2.257948e+01 9.305486e+07
2.303209e+01 8.863524e+07
2.349376e+01 8.435401e+07
2.396469e+01 8.030610e+07
2.444506e+01 7.632153e+07
2.493506e+01 7.253481e+07
2.543488e+01 6.888900e+07
2.594472e+01 6.539448e+07
2.646478e+01 6.214588e+07
2.699527e+01 5.900927e+07
2.753639e+01 5.595661e+07
2.808835e+01 5.279723e+07
2.865138e+01 4.999507e+07
2.922570e+01 4.728683e+07
2.981152e+01 4.476424e+07
3.040909e+01 4.229037e+07
3.101864e+01 3.990606e+07
3.164041e+01 3.761648e+07
3.227464e+01 3.539060e+07
3.292158e+01 3.327468e+07
3.358149e+01 3.124890e+07
3.425463e+01 2.935226e+07
3.494126e+01 2.760290e+07
3.564165e+01 2.592217e+07
3.635609e+01 2.431043e+07
3.708484e+01 2.278146e+07
3.782820e+01 2.130920e+07
3.858647e+01 1.994430e+07
3.935993e+01 1.867258e+07
4.014890e+01 1.745034e+07
4.095368e+01 1.629189e+07
4.177459e+01 1.518890e+07
4.261196e+01 1.415249e+07
4.346611e+01 1.317156e+07
4.433739e+01 1.227411e+07
4.522613e+01 1.142081e+07
4.613268e+01 1.061747e+07
4.705741e+01 9.868502e+06
4.800067e+01 9.161684e+06
4.896284e+01 8.505010e+06
4.994430e+01 7.894562e+06
5.094543e+01 7.335240e+06
5.196662e+01 6.814844e+06
5.300829e+01 6.328385e+06
5.407084e+01 5.878386e+06
5.515468e+01 5.459029e+06
5.626026e+01 5.070537e+06
5.738799e+01 4.707299e+06
5.853833e+01 4.374360e+06
5.971172e+01 4.069577e+06
6.090864e+01 3.781229e+06
6.212955e+01 3.512575e+06
6.337493e+01 3.265048e+06
6.464528e+01 3.032849e+06
6.594109e+01 2.818927e+06
6.726287e+01 2.622463e+06
6.861115e+01 2.440809e+06
6.998645e+01 2.266775e+06
7.138933e+01 2.106631e+06
7.282032e+01 1.959483e+06
7.428000e+01 1.818648e+06
7.576894e+01 1.689541e+06
7.728772e+01 1.571112e+06
7.883694e+01 1.459267e+06
8.041722e+01 1.356343e+06
8.202918e+01 1.258823e+06
8.367345e+01 1.169188e+06
8.535068e+01 1.086876e+06
8.706153e+01 1.010295e+06
8.880667e+01 9.382778e+05
9.058679e+01 8.716956e+05
9.240260e+01 8.094165e+05
9.425480e+01 7.517119e+05
9.614413e+01 6.987871e+05
9.807133e+01 6.497389e+05
1.000372e+02 6.030186e+05
1.020424e+02 5.602409e+05
1.040878e+02 5.202112e+05
1.061743e+02 4.835079e+05
1.083025e+02 4.488123e+05
1.104734e+02 4.168443e+05
1.126879e+02 3.871994e+05
1.149467e+02 3.595408e+05
1.172508e+02 3.346858e+05
1.196011e+02 3.114658e+05
1.219985e+02 2.888520e+05
1.244439e+02 2.689282e+05
1.269384e+02 2.496524e+05
1.294828e+02 2.317342e+05
1.320783e+02 2.153619e+05
1.347258e+02 2.000550e+05
1.374264e+02 1.859831e+05
1.401811e+02 1.731183e+05
1.429910e+02 1.609158e+05
1.458573e+02 1.493718e+05
1.487810e+02 1.387657e+05
1.517633e+02 1.288994e+05
1.548053e+02 1.195607e+05
1.579084e+02 1.111664e+05
1.610737e+02 1.033219e+05
1.643024e+02 9.595213e+04
1.675958e+02 8.915705e+04
1.709552e+02 8.284771e+04
1.743820e+02 7.693945e+04
1.778775e+02 7.151476e+04
1.814430e+02 6.635780e+04
1.850801e+02 6.158767e+04
1.887900e+02 5.721393e+04
1.925743e+02 5.317487e+04
1.964344e+02 4.939575e+04
2.003719e+02 4.593512e+04
2.043883e+02 4.269115e+04
2.084853e+02 3.970339e+04
2.126644e+02 3.688671e+04
2.169272e+02 3.423542e+04
2.212755e+02 3.180918e+04
2.257109e+02 2.956972e+04
2.302353e+02 2.748918e+04
2.348503e+02 2.552752e+04
2.395579e+02 2.370564e+04
2.443598e+02 2.199457e+04
2.492580e+02 2.042823e+04
2.542544e+02 1.896818e+04
2.593509e+02 1.762237e+04
2.645495e+02 1.638615e+04
2.698524e+02 1.522361e+04
2.752616e+02 1.414757e+04
2.807792e+02 1.315127e+04
2.864074e+02 1.221644e+04
2.921484e+02 1.135360e+04
2.980045e+02 1.055177e+04
3.039780e+02 9.791219e+03
3.100712e+02 9.098430e+03
3.162865e+02 8.454902e+03
3.226265e+02 7.857421e+03
3.290935e+02 7.301233e+03
3.356901e+02 6.780520e+03
3.424190e+02 6.300061e+03
3.492828e+02 5.853435e+03
3.562841e+02 5.438060e+03
3.634258e+02 5.050595e+03
3.707107e+02 4.691426e+03
3.781415e+02 4.357467e+03
3.857213e+02 4.047470e+03
3.934531e+02 3.758429e+03
4.013398e+02 3.491278e+03
4.093847e+02 3.245880e+03
4.175907e+02 3.011792e+03
4.259613e+02 2.798613e+03
4.344997e+02 2.602345e+03
4.432092e+02 2.413799e+03
4.520933e+02 2.242485e+03
4.611555e+02 2.083645e+03
4.703993e+02 1.935319e+03
4.798284e+02 1.797304e+03
4.894465e+02 1.667537e+03
4.992574e+02 1.549359e+03
5.092650e+02 1.439377e+03
5.194732e+02 1.337919e+03
5.298860e+02 1.242794e+03
5.405075e+02 1.154629e+03
5.513420e+02 1.072802e+03
5.623936e+02 9.973883e+02
5.736667e+02 9.268553e+02
5.851658e+02 8.615493e+02
5.968954e+02 8.005596e+02
6.088601e+02 7.438066e+02
6.210647e+02 6.912789e+02
6.335139e+02 6.423241e+02
6.462126e+02 5.970012e+02
6.591659e+02 5.551616e+02
6.723788e+02 5.154356e+02
6.858566e+02 4.789618e+02
6.996046e+02 4.451567e+02
7.136281e+02 4.136753e+02
7.279327e+02 3.843641e+02
7.425240e+02 3.571870e+02
7.574079e+02 3.319714e+02
7.725901e+02 3.081897e+02
7.880766e+02 2.862238e+02
8.038735e+02 2.659376e+02
8.199871e+02 2.472256e+02
8.364237e+02 2.297394e+02
8.531897e+02 2.137238e+02
8.702918e+02 1.987706e+02
8.877368e+02 1.846196e+02
9.055314e+02 1.715306e+02
9.236827e+02 1.594146e+02
9.421978e+02 1.480390e+02
9.610841e+02 1.374584e+02
9.803490e+02 1.276916e+02
1.000000e+03 1.186271e+02
