# Energy(MeV) Phi16 Phi84
5.000000e-02 1.585238e+11 2.267882e+11
5.100225e-02 1.554173e+11 2.220772e+11
5.202458e-02 1.524186e+11 2.174602e+11
5.306741e-02 1.495108e+11 2.129017e+11
5.413114e-02 1.467058e+11 2.084312e+11
5.521620e-02 1.440270e+11 2.040682e+11
5.632300e-02 1.413733e+11 1.997964e+11
5.745199e-02 1.387773e+11 1.955986e+11
5.860361e-02 1.361290e+11 1.914887e+11
5.977832e-02 1.335763e+11 1.874720e+11
6.097657e-02 1.310679e+11 1.835842e+11
6.219884e-02 1.285495e+11 1.797404e+11
6.344561e-02 1.261368e+11 1.759963e+11
6.471737e-02 1.237692e+11 1.723527e+11
6.601463e-02 1.214641e+11 1.687844e+11
6.733789e-02 1.190607e+11 1.653403e+11
6.868767e-02 1.168175e+11 1.620909e+11
7.006451e-02 1.145780e+11 1.587206e+11
7.146895e-02 1.124108e+11 1.553826e+11
7.290154e-02 1.102981e+11 1.520769e+11
7.436284e-02 1.082400e+11 1.488472e+11
7.585344e-02 1.061173e+11 1.457103e+11
7.737392e-02 1.041924e+11 1.425840e+11
7.892487e-02 1.022766e+11 1.395426e+11
8.050691e-02 1.003442e+11 1.365481e+11
8.212067e-02 9.841297e+10 1.336607e+11
8.376677e-02 9.655028e+10 1.308785e+11
8.544587e-02 9.472466e+10 1.281979e+11
8.715862e-02 9.286102e+10 1.255216e+11
8.890571e-02 9.112484e+10 1.229095e+11
9.068782e-02 8.943306e+10 1.203677e+11
9.250565e-02 8.772884e+10 1.178864e+11
9.435992e-02 8.605473e+10 1.154465e+11
9.625136e-02 8.442130e+10 1.130569e+11
9.818071e-02 8.281865e+10 1.107077e+11
1.001487e-01 8.124621e+10 1.083736e+11
1.021562e-01 7.970626e+10 1.060769e+11
1.042039e-01 7.820128e+10 1.038221e+11
1.062927e-01 7.673300e+10 1.016150e+11
1.084233e-01 7.524831e+10 9.950198e+10
1.105966e-01 7.384100e+10 9.742786e+10
1.128135e-01 7.241953e+10 9.537690e+10
1.150749e-01 7.100097e+10 9.333755e+10
1.173816e-01 6.960003e+10 9.138675e+10
1.197345e-01 6.830070e+10 8.945298e+10
1.221345e-01 6.703572e+10 8.756143e+10
1.245827e-01 6.574161e+10 8.570964e+10
1.270800e-01 6.447864e+10 8.396024e+10
1.296273e-01 6.322033e+10 8.224513e+10
1.322256e-01 6.199500e+10 8.053195e+10
1.348761e-01 6.079205e+10 7.883166e+10
1.375797e-01 5.962223e+10 7.717698e+10
1.403374e-01 5.846912e+10 7.554713e+10
1.431505e-01 5.732646e+10 7.394564e+10
1.460199e-01 5.620596e+10 7.243615e+10
1.489469e-01 5.507778e+10 7.089944e+10
1.519325e-01 5.402005e+10 6.942619e+10
1.549780e-01 5.299648e+10 6.796573e+10
1.580845e-01 5.194868e+10 6.651423e+10
1.612533e-01 5.091266e+10 6.509546e+10
1.644856e-01 4.988957e+10 6.374662e+10
1.677827e-01 4.890607e+10 6.239476e+10
1.711459e-01 4.801195e+10 6.112288e+10
1.745765e-01 4.710924e+10 5.987883e+10
1.780759e-01 4.620378e+10 5.863134e+10
1.816454e-01 4.531132e+10 5.742282e+10
1.852865e-01 4.441309e+10 5.629315e+10
1.890005e-01 4.356018e+10 5.509986e+10
1.927890e-01 4.269179e+10 5.394168e+10
1.966535e-01 4.183173e+10 5.285987e+10
2.005954e-01 4.097632e+10 5.180310e+10
2.046163e-01 4.015117e+10 5.072896e+10
2.087178e-01 3.937762e+10 4.970226e+10
2.129015e-01 3.865876e+10 4.868499e+10
2.171691e-01 3.791094e+10 4.766877e+10
2.215223e-01 3.718487e+10 4.668650e+10
2.259627e-01 3.647681e+10 4.569312e+10
2.304921e-01 3.577399e+10 4.476407e+10
2.351123e-01 3.506620e+10 4.383679e+10
2.398251e-01 3.438186e+10 4.289677e+10
2.446324e-01 3.373761e+10 4.201677e+10
2.495360e-01 3.306446e+10 4.114786e+10
2.545379e-01 3.239920e+10 4.029001e+10
2.596401e-01 3.176708e+10 3.945665e+10
2.648446e-01 3.114079e+10 3.862369e+10
2.701534e-01 3.053416e+10 3.783373e+10
2.755686e-01 2.993447e+10 3.706417e+10
2.810923e-01 2.932553e+10 3.628440e+10
2.867268e-01 2.874805e+10 3.554270e+10
2.924742e-01 2.818190e+10 3.481237e+10
2.983368e-01 2.763046e+10 3.408541e+10
3.043170e-01 2.710105e+10 3.334805e+10
3.104170e-01 2.658017e+10 3.267034e+10
3.166393e-01 2.607941e+10 3.197891e+10
3.229863e-01 2.558773e+10 3.130199e+10
3.294605e-01 2.509826e+10 3.064875e+10
3.360645e-01 2.461340e+10 2.998595e+10
3.428009e-01 2.413833e+10 2.933450e+10
3.496723e-01 2.367058e+10 2.871587e+10
3.566815e-01 2.321452e+10 2.811727e+10
3.638311e-01 2.274873e+10 2.753130e+10
3.711241e-01 2.230275e+10 2.698009e+10
3.785633e-01 2.187206e+10 2.641345e+10
3.861515e-01 2.143258e+10 2.589728e+10
3.938919e-01 2.099969e+10 2.536730e+10
4.017874e-01 2.057587e+10 2.483630e+10
4.098412e-01 2.017350e+10 2.432248e+10
4.180565e-01 1.975910e+10 2.381014e+10
4.264364e-01 1.937279e+10 2.331080e+10
4.349843e-01 1.899536e+10 2.282169e+10
4.437035e-01 1.861239e+10 2.233785e+10
4.525975e-01 1.822971e+10 2.187053e+10
4.616698e-01 1.785551e+10 2.140385e+10
4.709239e-01 1.749360e+10 2.096284e+10
4.803635e-01 1.713746e+10 2.053136e+10
4.899924e-01 1.677140e+10 2.010896e+10
4.998143e-01 1.643883e+10 1.969707e+10
5.098330e-01 1.609672e+10 1.927590e+10
5.200526e-01 1.576338e+10 1.888746e+10
5.304770e-01 1.546140e+10 1.847840e+10
5.411103e-01 1.515019e+10 1.810255e+10
5.519569e-01 1.484723e+10 1.773434e+10
5.630208e-01 1.454135e+10 1.736444e+10
5.743065e-01 1.424734e+10 1.700400e+10
5.858184e-01 1.396192e+10 1.664507e+10
5.975611e-01 1.367838e+10 1.630492e+10
6.095392e-01 1.340259e+10 1.597052e+10
6.217573e-01 1.312242e+10 1.564426e+10
6.342204e-01 1.285221e+10 1.531373e+10
6.469333e-01 1.258097e+10 1.498894e+10
6.599011e-01 1.232477e+10 1.467725e+10
6.731287e-01 1.207242e+10 1.437181e+10
6.866215e-01 1.182658e+10 1.406648e+10
7.003848e-01 1.158419e+10 1.376381e+10
7.144240e-01 1.136654e+10 1.347272e+10
7.287445e-01 1.113965e+10 1.319834e+10
7.433522e-01 1.090951e+10 1.291070e+10
7.582526e-01 1.068274e+10 1.264403e+10
7.734517e-01 1.045761e+10 1.237962e+10
7.889555e-01 1.023934e+10 1.214303e+10
8.047701e-01 1.002604e+10 1.189365e+10
8.209016e-01 9.812563e+09 1.164834e+10
8.373565e-01 9.606723e+09 1.140635e+10
8.541413e-01 9.411658e+09 1.117090e+10
8.712625e-01 9.218042e+09 1.094164e+10
8.887268e-01 9.032338e+09 1.070886e+10
9.065413e-01 8.839694e+09 1.048552e+10
9.247129e-01 8.657100e+09 1.026417e+10
9.432487e-01 8.468805e+09 1.005275e+10
9.621560e-01 8.283280e+09 9.844127e+09
9.814423e-01 8.104693e+09 9.641606e+09
1.001115e+00 7.936375e+09 9.442749e+09
1.021183e+00 7.764072e+09 9.242912e+09
1.041652e+00 7.598410e+09 9.047557e+09
1.062532e+00 7.435709e+09 8.865257e+09
1.083830e+00 7.273812e+09 8.678827e+09
1.105556e+00 7.115892e+09 8.498262e+09
1.127716e+00 6.963425e+09 8.316630e+09
1.150321e+00 6.812058e+09 8.143851e+09
1.173379e+00 6.666304e+09 7.973937e+09
1.196900e+00 6.522989e+09 7.810397e+09
1.220892e+00 6.372762e+09 7.643095e+09
1.245364e+00 6.239628e+09 7.482416e+09
1.270327e+00 6.102721e+09 7.321977e+09
1.295791e+00 5.966902e+09 7.163501e+09
1.321765e+00 5.833847e+09 7.013273e+09
1.348260e+00 5.708079e+09 6.869313e+09
1.375286e+00 5.581931e+09 6.726690e+09
1.402853e+00 5.460524e+09 6.583053e+09
1.430973e+00 5.342398e+09 6.445225e+09
1.459657e+00 5.221360e+09 6.306173e+09
1.488916e+00 5.102108e+09 6.168773e+09
1.518761e+00 4.986879e+09 6.035362e+09
1.549204e+00 4.877664e+09 5.907537e+09
1.580258e+00 4.766157e+09 5.783626e+09
1.611934e+00 4.661681e+09 5.658484e+09
1.644245e+00 4.560048e+09 5.536291e+09
1.677204e+00 4.460372e+09 5.416484e+09
1.710823e+00 4.362104e+09 5.303273e+09
1.745117e+00 4.266872e+09 5.186224e+09
1.780097e+00 4.170998e+09 5.077495e+09
1.815779e+00 4.081269e+09 4.969331e+09
1.852176e+00 3.989265e+09 4.860226e+09
1.889303e+00 3.895324e+09 4.753880e+09
1.927174e+00 3.806664e+09 4.649265e+09
1.965804e+00 3.718529e+09 4.544104e+09
2.005209e+00 3.634336e+09 4.446505e+09
2.045403e+00 3.553617e+09 4.347863e+09
2.086403e+00 3.471953e+09 4.250273e+09
2.128224e+00 3.390804e+09 4.154408e+09
2.170885e+00 3.315373e+09 4.064069e+09
2.214400e+00 3.241361e+09 3.972468e+09
2.258787e+00 3.164118e+09 3.885945e+09
2.304064e+00 3.090401e+09 3.800459e+09
2.350249e+00 3.017960e+09 3.715731e+09
2.397360e+00 2.947300e+09 3.632892e+09
2.445415e+00 2.876654e+09 3.553587e+09
2.494433e+00 2.807523e+09 3.472039e+09
2.544434e+00 2.741651e+09 3.391514e+09
2.595437e+00 2.679237e+09 3.312774e+09
2.647462e+00 2.617404e+09 3.237658e+09
2.700530e+00 2.554696e+09 3.163779e+09
2.754662e+00 2.494204e+09 3.090417e+09
2.809879e+00 2.436294e+09 3.019133e+09
2.866203e+00 2.378825e+09 2.949973e+09
2.923656e+00 2.323404e+09 2.882188e+09
2.982260e+00 2.269004e+09 2.814965e+09
3.042039e+00 2.214003e+09 2.746396e+09
3.103017e+00 2.159942e+09 2.680369e+09
3.165216e+00 2.107069e+09 2.618203e+09
3.228663e+00 2.055372e+09 2.555601e+09
3.293381e+00 2.004965e+09 2.496250e+09
3.359397e+00 1.954775e+09 2.438185e+09
3.426736e+00 1.905829e+09 2.378718e+09
3.495424e+00 1.859142e+09 2.322067e+09
3.565490e+00 1.812268e+09 2.264298e+09
3.636960e+00 1.766919e+09 2.209674e+09
3.709862e+00 1.723012e+09 2.155616e+09
3.784226e+00 1.680319e+09 2.103248e+09
3.860081e+00 1.638133e+09 2.051701e+09
3.937456e+00 1.596273e+09 2.000753e+09
4.016382e+00 1.555776e+09 1.952008e+09
4.096890e+00 1.516610e+09 1.904986e+09
4.179012e+00 1.478199e+09 1.858610e+09
4.262780e+00 1.440624e+09 1.811968e+09
4.348227e+00 1.404531e+09 1.766400e+09
4.435387e+00 1.369331e+09 1.723560e+09
4.524294e+00 1.334141e+09 1.678921e+09
4.614983e+00 1.300449e+09 1.638230e+09
4.707490e+00 1.266555e+09 1.598040e+09
4.801851e+00 1.234110e+09 1.557243e+09
4.898104e+00 1.201908e+09 1.517915e+09
4.996286e+00 1.169713e+09 1.480079e+09
5.096436e+00 1.138819e+09 1.443584e+09
5.198594e+00 1.109324e+09 1.407272e+09
5.302799e+00 1.079877e+09 1.370436e+09
5.409093e+00 1.050787e+09 1.334033e+09
5.517518e+00 1.022352e+09 1.298793e+09
5.628116e+00 9.949241e+08 1.263866e+09
5.740932e+00 9.681241e+08 1.230892e+09
5.856008e+00 9.419268e+08 1.199426e+09
5.973391e+00 9.159505e+08 1.166729e+09
6.093127e+00 8.903473e+08 1.134647e+09
6.215264e+00 8.658701e+08 1.103610e+09
6.339848e+00 8.416645e+08 1.073262e+09
6.466930e+00 8.183211e+08 1.043466e+09
6.596559e+00 7.947982e+08 1.015224e+09
6.728787e+00 7.729071e+08 9.865573e+08
6.863665e+00 7.513676e+08 9.594339e+08
7.001246e+00 7.300364e+08 9.324471e+08
7.141586e+00 7.094541e+08 9.060361e+08
7.284738e+00 6.893349e+08 8.802109e+08
7.430760e+00 6.696874e+08 8.543218e+08
7.579709e+00 6.500833e+08 8.289751e+08
7.731644e+00 6.309621e+08 8.045528e+08
7.886624e+00 6.122724e+08 7.808000e+08
8.044711e+00 5.944540e+08 7.570462e+08
8.205967e+00 5.766154e+08 7.354926e+08
8.370455e+00 5.591984e+08 7.139741e+08
8.538240e+00 5.423456e+08 6.919410e+08
8.709388e+00 5.258851e+08 6.704813e+08
8.883967e+00 5.097136e+08 6.493913e+08
9.062045e+00 4.938825e+08 6.302758e+08
9.243693e+00 4.784118e+08 6.112312e+08
9.428983e+00 4.634000e+08 5.917558e+08
9.617986e+00 4.489862e+08 5.731626e+08
9.810778e+00 4.347640e+08 5.543414e+08
1.000743e+01 4.208363e+08 5.369862e+08
1.020803e+01 4.070385e+08 5.197854e+08
1.041265e+01 3.935704e+08 5.022791e+08
1.062137e+01 3.806700e+08 4.855254e+08
1.083428e+01 3.676891e+08 4.689011e+08
1.105145e+01 3.552223e+08 4.529736e+08
1.127297e+01 3.431385e+08 4.371732e+08
1.149894e+01 3.313159e+08 4.215961e+08
1.172944e+01 3.198049e+08 4.071799e+08
1.196455e+01 3.087016e+08 3.931218e+08
1.220438e+01 2.980622e+08 3.793422e+08
1.244902e+01 2.877022e+08 3.656655e+08
1.269856e+01 2.776157e+08 3.527868e+08
1.295310e+01 2.676484e+08 3.402921e+08
1.321274e+01 2.579697e+08 3.282366e+08
1.347759e+01 2.488708e+08 3.162956e+08
1.374775e+01 2.400282e+08 3.046527e+08
1.402332e+01 2.311804e+08 2.934704e+08
1.430442e+01 2.227317e+08 2.826495e+08
1.459115e+01 2.142158e+08 2.718955e+08
1.488362e+01 2.064465e+08 2.618251e+08
1.518197e+01 1.987149e+08 2.518042e+08
1.548629e+01 1.910184e+08 2.423023e+08
1.579671e+01 1.835173e+08 2.328782e+08
1.611335e+01 1.764912e+08 2.237617e+08
1.643634e+01 1.696302e+08 2.146275e+08
1.676581e+01 1.627429e+08 2.059383e+08
1.710188e+01 1.563749e+08 1.978833e+08
1.744468e+01 1.500788e+08 1.898216e+08
1.779436e+01 1.437821e+08 1.818644e+08
1.815105e+01 1.378501e+08 1.744265e+08
1.851488e+01 1.317738e+08 1.669145e+08
1.888601e+01 1.261456e+08 1.597306e+08
1.926458e+01 1.205276e+08 1.529459e+08
1.965074e+01 1.151438e+08 1.465514e+08
2.004464e+01 1.098626e+08 1.400509e+08
2.044643e+01 1.049086e+08 1.336845e+08
2.085628e+01 1.000845e+08 1.278693e+08
2.127434e+01 9.555177e+07 1.220882e+08
2.170078e+01 9.104440e+07 1.164850e+08
2.213577e+01 8.664876e+07 1.111280e+08
2.257948e+01 8.224302e+07 1.058936e+08
2.303209e+01 7.804226e+07 1.008106e+08
2.349376e+01 7.406350e+07 9.603093e+07
2.396469e+01 7.060856e+07 9.146674e+07
2.444506e+01 6.711422e+07 8.689127e+07
2.493506e+01 6.376550e+07 8.259511e+07
2.543488e+01 6.061461e+07 7.844159e+07
2.594472e+01 5.741708e+07 7.449322e+07
2.646478e+01 5.445220e+07 7.087646e+07
2.699527e+01 5.153160e+07 6.720720e+07
2.753639e+01 4.879782e+07 6.375751e+07
2.808835e+01 4.616321e+07 6.038402e+07
2.865138e+01 4.366966e+07 5.710894e+07
2.922570e+01 4.119518e+07 5.400447e+07
2.981152e+01 3.873176e+07 5.112865e+07
3.040909e+01 3.646336e+07 4.836019e+07
3.101864e+01 3.431501e+07 4.565330e+07
3.164041e+01 3.229033e+07 4.304504e+07
3.227464e+01 3.026024e+07 4.062461e+07
3.292158e+01 2.838541e+07 3.840908e+07
3.358149e+01 2.662388e+07 3.615629e+07
3.425463e+01 2.492311e+07 3.397681e+07
3.494126e+01 2.334446e+07 3.198579e+07
3.564165e+01 2.184018e+07 3.009390e+07
3.635609e+01 2.040982e+07 2.829573e+07
3.708484e+01 1.909184e+07 2.657926e+07
3.782820e+01 1.782963e+07 2.495844e+07
3.858647e+01 1.659803e+07 2.336759e+07
3.935993e+01 1.543322e+07 2.186074e+07
4.014890e+01 1.434659e+07 2.041728e+07
4.095368e+01 1.335112e+07 1.911482e+07
4.177459e+01 1.245022e+07 1.791578e+07
4.261196e+01 1.159793e+07 1.672413e+07
4.346611e+01 1.079682e+07 1.564864e+07
4.433739e+01 1.004637e+07 1.459540e+07
4.522613e+01 9.353729e+06 1.356474e+07
4.613268e+01 8.713588e+06 1.260329e+07
4.705741e+01 8.113524e+06 1.170131e+07
4.800067e+01 7.550595e+06 1.088917e+07
4.896284e+01 7.024049e+06 1.012838e+07
4.994430e+01 6.541791e+06 9.419072e+06
5.094543e+01 6.084086e+06 8.759572e+06
5.196662e+01 5.667442e+06 8.139993e+06
5.300829e+01 5.280581e+06 7.551025e+06
5.407084e+01 4.911630e+06 7.003584e+06
5.515468e+01 4.569235e+06 6.495771e+06
5.626026e+01 4.253438e+06 6.020830e+06
5.738799e+01 3.961826e+06 5.585781e+06
5.853833e+01 3.689398e+06 5.185094e+06
5.971172e+01 3.432831e+06 4.806615e+06
6.090864e+01 3.193647e+06 4.458057e+06
6.212955e+01 2.971346e+06 4.136001e+06
6.337493e+01 2.765985e+06 3.834787e+06
6.464528e+01 2.574864e+06 3.559497e+06
6.594109e+01 2.396798e+06 3.301150e+06
6.726287e+01 2.231878e+06 3.061490e+06
6.861115e+01 2.079538e+06 2.839347e+06
6.998645e+01 1.935854e+06 2.631853e+06
7.138933e+01 1.801541e+06 2.439857e+06
7.282032e+01 1.675680e+06 2.259012e+06
7.428000e+01 1.561381e+06 2.094209e+06
7.576894e+01 1.453002e+06 1.943612e+06
7.728772e+01 1.352210e+06 1.802686e+06
7.883694e+01 1.257976e+06 1.672658e+06
8.041722e+01 1.170459e+06 1.552754e+06
8.202918e+01 1.089266e+06 1.440659e+06
8.367345e+01 1.013809e+06 1.336256e+06
8.535068e+01 9.436486e+05 1.242139e+06
8.706153e+01 8.779148e+05 1.152422e+06
8.880667e+01 8.176180e+05 1.068638e+06
9.058679e+01 7.608751e+05 9.915979e+05
9.240260e+01 7.078367e+05 9.195239e+05
9.425480e+01 6.596642e+05 8.532995e+05
9.614413e+01 6.137231e+05 7.921436e+05
9.807133e+01 5.709751e+05 7.358721e+05
1.000372e+02 5.312893e+05 6.824945e+05
1.020424e+02 4.937051e+05 6.341955e+05
1.040878e+02 4.596811e+05 5.880068e+05
1.061743e+02 4.273059e+05 5.456923e+05
1.083025e+02 3.973694e+05 5.071085e+05
1.104734e+02 3.694611e+05 4.706460e+05
1.126879e+02 3.427791e+05 4.367088e+05
1.149467e+02 3.189078e+05 4.053346e+05
1.172508e+02 2.967356e+05 3.762807e+05
1.196011e+02 2.757911e+05 3.487500e+05
1.219985e+02 2.564714e+05 3.240851e+05
1.244439e+02 2.382243e+05 3.007430e+05
1.269384e+02 2.211486e+05 2.790280e+05
1.294828e+02 2.055812e+05 2.588439e+05
1.320783e+02 1.911804e+05 2.399476e+05
1.347258e+02 1.777161e+05 2.229373e+05
1.374264e+02 1.655134e+05 2.070501e+05
1.401811e+02 1.541551e+05 1.920941e+05
1.429910e+02 1.431864e+05 1.784695e+05
1.458573e+02 1.331010e+05 1.656601e+05
1.487810e+02 1.237422e+05 1.539560e+05
1.517633e+02 1.150268e+05 1.429315e+05
1.548053e+02 1.070296e+05 1.326183e+05
1.579084e+02 9.959093e+04 1.229799e+05
1.610737e+02 9.252245e+04 1.141982e+05
1.643024e+02 8.605063e+04 1.061198e+05
1.675958e+02 7.990266e+04 9.862358e+04
1.709552e+02 7.428222e+04 9.167684e+04
1.743820e+02 6.902989e+04 8.516744e+04
1.778775e+02 6.418436e+04 7.911787e+04
1.814430e+02 5.971119e+04 7.355015e+04
1.850801e+02 5.545212e+04 6.839821e+04
1.887900e+02 5.156763e+04 6.360852e+04
1.925743e+02 4.787771e+04 5.908973e+04
1.964344e+02 4.446369e+04 5.492128e+04
2.003719e+02 4.125538e+04 5.099225e+04
2.043883e+02 3.831198e+04 4.740937e+04
2.084853e+02 3.557242e+04 4.403358e+04
2.126644e+02 3.299049e+04 4.089969e+04
2.169272e+02 3.064757e+04 3.798988e+04
2.212755e+02 2.850662e+04 3.532227e+04
2.257109e+02 2.649484e+04 3.279838e+04
2.302353e+02 2.462149e+04 3.048441e+04
2.348503e+02 2.284862e+04 2.834238e+04
2.395579e+02 2.122945e+04 2.634897e+04
2.443598e+02 1.971416e+04 2.445974e+04
2.492580e+02 1.829526e+04 2.270511e+04
2.542544e+02 1.698397e+04 2.110419e+04
2.593509e+02 1.577781e+04 1.961466e+04
2.645495e+02 1.465674e+04 1.823553e+04
2.698524e+02 1.359894e+04 1.694909e+04
2.752616e+02 1.263048e+04 1.577423e+04
2.807792e+02 1.172262e+04 1.467215e+04
2.864074e+02 1.089667e+04 1.365244e+04
2.921484e+02 1.011814e+04 1.269819e+04
2.980045e+02 9.396718e+03 1.180524e+04
3.039780e+02 8.722526e+03 1.098009e+04
3.100712e+02 8.094230e+03 1.020404e+04
3.162865e+02 7.512094e+03 9.483936e+03
3.226265e+02 6.974289e+03 8.824397e+03
3.290935e+02 6.472912e+03 8.212152e+03
3.356901e+02 6.004521e+03 7.633301e+03
3.424190e+02 5.579105e+03 7.094895e+03
3.492828e+02 5.177754e+03 6.595448e+03
3.562841e+02 4.805281e+03 6.136020e+03
3.634258e+02 4.460834e+03 5.714256e+03
3.707107e+02 4.138497e+03 5.315153e+03
3.781415e+02 3.837624e+03 4.940120e+03
3.857213e+02 3.560634e+03 4.586972e+03
3.934531e+02 3.304399e+03 4.269108e+03
4.013398e+02 3.062161e+03 3.970449e+03
4.093847e+02 2.839518e+03 3.693408e+03
4.175907e+02 2.633739e+03 3.438608e+03
4.259613e+02 2.442368e+03 3.196288e+03
4.344997e+02 2.266490e+03 2.969941e+03
4.432092e+02 2.103588e+03 2.762376e+03
4.520933e+02 1.952015e+03 2.574954e+03
4.611555e+02 1.812413e+03 2.391575e+03
4.703993e+02 1.680792e+03 2.222255e+03
4.798284e+02 1.559079e+03 2.066249e+03
4.894465e+02 1.444680e+03 1.920548e+03
4.992574e+02 1.339414e+03 1.786474e+03
5.092650e+02 1.241668e+03 1.662164e+03
5.194732e+02 1.150946e+03 1.547247e+03
5.298860e+02 1.069178e+03 1.442037e+03
5.405075e+02 9.923716e+02 1.341759e+03
5.513420e+02 9.207404e+02 1.248634e+03
5.623936e+02 8.536780e+02 1.161759e+03
5.736667e+02 7.912793e+02 1.081610e+03
5.851658e+02 7.344263e+02 1.006367e+03
5.968954e+02 6.811002e+02 9.362596e+02
6.088601e+02 6.316461e+02 8.715617e+02
6.210647e+02 5.860758e+02 8.114778e+02
6.335139e+02 5.436024e+02 7.548706e+02
6.462126e+02 5.044452e+02 7.026297e+02
6.591659e+02 4.679703e+02 6.529502e+02
6.723788e+02 4.347006e+02 6.076165e+02
6.858566e+02 4.036484e+02 5.653506e+02
6.996046e+02 3.742478e+02 5.259786e+02
7.136281e+02 3.473841e+02 4.894368e+02
7.279327e+02 3.227235e+02 4.554134e+02
7.425240e+02 2.993120e+02 4.240625e+02
7.574079e+02 2.778439e+02 3.947938e+02
7.725901e+02 2.577697e+02 3.674352e+02
7.880766e+02 2.389666e+02 3.420488e+02
8.038735e+02 2.214021e+02 3.183857e+02
8.199871e+02 2.054397e+02 2.963798e+02
8.364237e+02 1.906527e+02 2.761039e+02
8.531897e+02 1.768563e+02 2.569640e+02
8.702918e+02 1.640201e+02 2.388412e+02
8.877368e+02 1.520579e+02 2.222667e+02
9.055314e+02 1.410514e+02 2.069529e+02
9.236827e+02 1.309914e+02 1.927860e+02
9.421978e+02 1.215932e+02 1.795291e+02
9.610841e+02 1.128117e+02 1.670695e+02
9.803490e+02 1.046129e+02 1.555464e+02
1.000000e+03 9.691278e+01 1.448072e+02
