# Energy(MeV) Fluence_Planar
1.000000e-01 1.815431e+12
1.018629e-01 1.755534e+12
1.037605e-01 1.697613e+12
1.056935e-01 1.641603e+12
1.076624e-01 1.587441e+12
1.096681e-01 1.535067e+12
1.117111e-01 1.484247e+12
1.137921e-01 1.435005e+12
1.159120e-01 1.387397e+12
1.180713e-01 1.341279e+12
1.202708e-01 1.296568e+12
1.225114e-01 1.253348e+12
1.247936e-01 1.211569e+12
1.271184e-01 1.170918e+12
1.294865e-01 1.131473e+12
1.318987e-01 1.093356e+12
1.343558e-01 1.056524e+12
1.368587e-01 1.020932e+12
1.394083e-01 9.866469e+11
1.420053e-01 9.540663e+11
1.446507e-01 9.225618e+11
1.473454e-01 8.920977e+11
1.500903e-01 8.625868e+11
1.528864e-01 8.333727e+11
1.557345e-01 8.051483e+11
1.586357e-01 7.778800e+11
1.615909e-01 7.515354e+11
1.646012e-01 7.264603e+11
1.676675e-01 7.023444e+11
1.707910e-01 6.790291e+11
1.739726e-01 6.564878e+11
1.772136e-01 6.346948e+11
1.805149e-01 6.136252e+11
1.838777e-01 5.932551e+11
1.873032e-01 5.735613e+11
1.907924e-01 5.545212e+11
1.943467e-01 5.361132e+11
1.979672e-01 5.183163e+11
2.016551e-01 5.011877e+11
2.054117e-01 4.846917e+11
2.092383e-01 4.687386e+11
2.131362e-01 4.533106e+11
2.171068e-01 4.383904e+11
2.211512e-01 4.239613e+11
2.252711e-01 4.100071e+11
2.294676e-01 3.964542e+11
2.337424e-01 3.833101e+11
2.380968e-01 3.705691e+11
2.425323e-01 3.581286e+11
2.470504e-01 3.459656e+11
2.516527e-01 3.341531e+11
2.563407e-01 3.227439e+11
2.611161e-01 3.117681e+11
2.659804e-01 3.014629e+11
2.709354e-01 2.916223e+11
2.759826e-01 2.821030e+11
2.811239e-01 2.728944e+11
2.863610e-01 2.638872e+11
2.916956e-01 2.550921e+11
2.971296e-01 2.466203e+11
3.026648e-01 2.383367e+11
3.083031e-01 2.303534e+11
3.140465e-01 2.227203e+11
3.198969e-01 2.153401e+11
3.258562e-01 2.081661e+11
3.319266e-01 2.012412e+11
3.381101e-01 1.945667e+11
3.444087e-01 1.881135e+11
3.508247e-01 1.818745e+11
3.573602e-01 1.756465e+11
3.640175e-01 1.695974e+11
3.707988e-01 1.639031e+11
3.777064e-01 1.584001e+11
3.847427e-01 1.531427e+11
3.919100e-01 1.480692e+11
3.992109e-01 1.431584e+11
4.066478e-01 1.383095e+11
4.142232e-01 1.336250e+11
4.219398e-01 1.290991e+11
4.298001e-01 1.247502e+11
4.378069e-01 1.206001e+11
4.459628e-01 1.166249e+11
4.542706e-01 1.127600e+11
4.627332e-01 1.089971e+11
4.713535e-01 1.053599e+11
4.801343e-01 1.018440e+11
4.890787e-01 9.847974e+10
4.981898e-01 9.523714e+10
5.074705e-01 9.209731e+10
5.169242e-01 8.905982e+10
5.265540e-01 8.613602e+10
5.363631e-01 8.329986e+10
5.463550e-01 8.059315e+10
5.565331e-01 7.797585e+10
5.669007e-01 7.541411e+10
5.774615e-01 7.295850e+10
5.882190e-01 7.053095e+10
5.991770e-01 6.817099e+10
6.103390e-01 6.586824e+10
6.217090e-01 6.362038e+10
6.332908e-01 6.149162e+10
6.450884e-01 5.943409e+10
6.571058e-01 5.739841e+10
6.693470e-01 5.545192e+10
6.818162e-01 5.360354e+10
6.945178e-01 5.181678e+10
7.074559e-01 5.010051e+10
7.206351e-01 4.841970e+10
7.340598e-01 4.679861e+10
7.477346e-01 4.524213e+10
7.616642e-01 4.373365e+10
7.758532e-01 4.227548e+10
7.903066e-01 4.085258e+10
8.050292e-01 3.946408e+10
8.200261e-01 3.813880e+10
8.353023e-01 3.686111e+10
8.508632e-01 3.562138e+10
8.667139e-01 3.444551e+10
8.828599e-01 3.331905e+10
8.993067e-01 3.221149e+10
9.160598e-01 3.114075e+10
9.331251e-01 3.010776e+10
9.505083e-01 2.910578e+10
9.682153e-01 2.815824e+10
9.862522e-01 2.724266e+10
1.004625e+00 2.634650e+10
1.023340e+00 2.547275e+10
1.042404e+00 2.463083e+10
1.061823e+00 2.381227e+10
1.081604e+00 2.301706e+10
1.101753e+00 2.224946e+10
1.122277e+00 2.150747e+10
1.143184e+00 2.078698e+10
1.164481e+00 2.010970e+10
1.186174e+00 1.944034e+10
1.208271e+00 1.881164e+10
1.230780e+00 1.818644e+10
1.253708e+00 1.756679e+10
1.277063e+00 1.696096e+10
1.300854e+00 1.640181e+10
1.325087e+00 1.585023e+10
1.349772e+00 1.532631e+10
1.374917e+00 1.481470e+10
1.400531e+00 1.432131e+10
1.426621e+00 1.385206e+10
1.453198e+00 1.339372e+10
1.480269e+00 1.295251e+10
1.507845e+00 1.252886e+10
1.535935e+00 1.210506e+10
1.564548e+00 1.169203e+10
1.593694e+00 1.129142e+10
1.623382e+00 1.091106e+10
1.653624e+00 1.054116e+10
1.684430e+00 1.018791e+10
1.715809e+00 9.852060e+09
1.747773e+00 9.508829e+09
1.780332e+00 9.184316e+09
1.813498e+00 8.878117e+09
1.847281e+00 8.578237e+09
1.881694e+00 8.292997e+09
1.916748e+00 8.019371e+09
1.952456e+00 7.761171e+09
1.988828e+00 7.503287e+09
2.025878e+00 7.254684e+09
2.063618e+00 7.021517e+09
2.102061e+00 6.785499e+09
2.141220e+00 6.563460e+09
2.181109e+00 6.345411e+09
2.221741e+00 6.129727e+09
2.263130e+00 5.929653e+09
2.305289e+00 5.726880e+09
2.348235e+00 5.536755e+09
2.391980e+00 5.354293e+09
2.436540e+00 5.174976e+09
2.481930e+00 5.005685e+09
2.528166e+00 4.840678e+09
2.575263e+00 4.672912e+09
2.623238e+00 4.517716e+09
2.672106e+00 4.369166e+09
2.721885e+00 4.226612e+09
2.772591e+00 4.088773e+09
2.824241e+00 3.949209e+09
2.876854e+00 3.819540e+09
2.930447e+00 3.695233e+09
2.985038e+00 3.571152e+09
3.040646e+00 3.447957e+09
3.097291e+00 3.333167e+09
3.154990e+00 3.221842e+09
3.213764e+00 3.113106e+09
3.273634e+00 3.005922e+09
3.334618e+00 2.903930e+09
3.396739e+00 2.808858e+09
3.460016e+00 2.712490e+09
3.524473e+00 2.621880e+09
3.590130e+00 2.533015e+09
3.657011e+00 2.445742e+09
3.725137e+00 2.361432e+09
3.794533e+00 2.284153e+09
3.865221e+00 2.207089e+09
3.937226e+00 2.131238e+09
4.010573e+00 2.059265e+09
4.085286e+00 1.988130e+09
4.161391e+00 1.921076e+09
4.238913e+00 1.855250e+09
4.317880e+00 1.792323e+09
4.398317e+00 1.731144e+09
4.480254e+00 1.672116e+09
4.563716e+00 1.615271e+09
4.648734e+00 1.561007e+09
4.735335e+00 1.508570e+09
4.823549e+00 1.457019e+09
4.913407e+00 1.406439e+09
5.004939e+00 1.358577e+09
5.098176e+00 1.312673e+09
5.193150e+00 1.268568e+09
5.289893e+00 1.225277e+09
5.388438e+00 1.183346e+09
5.488820e+00 1.143440e+09
5.591071e+00 1.104121e+09
5.695227e+00 1.066284e+09
5.801323e+00 1.029611e+09
5.909396e+00 9.948291e+08
6.019482e+00 9.623365e+08
6.131619e+00 9.304272e+08
6.245845e+00 8.982488e+08
6.362198e+00 8.687739e+08
6.480720e+00 8.399530e+08
6.601449e+00 8.113249e+08
6.724427e+00 7.833990e+08
6.849697e+00 7.573584e+08
6.977300e+00 7.313265e+08
7.107280e+00 7.067204e+08
7.239681e+00 6.829843e+08
7.374549e+00 6.601489e+08
7.511929e+00 6.370514e+08
7.651869e+00 6.165042e+08
7.794416e+00 5.956347e+08
7.939618e+00 5.751142e+08
8.087525e+00 5.564592e+08
8.238187e+00 5.373770e+08
8.391656e+00 5.199004e+08
8.547985e+00 5.023567e+08
8.707225e+00 4.857866e+08
8.869432e+00 4.694840e+08
9.034660e+00 4.534718e+08
9.202967e+00 4.379959e+08
9.374409e+00 4.234108e+08
9.549045e+00 4.093885e+08
9.726934e+00 3.956321e+08
9.908137e+00 3.825518e+08
1.009272e+01 3.701267e+08
1.028073e+01 3.576323e+08
1.047225e+01 3.456205e+08
1.066734e+01 3.340070e+08
1.086606e+01 3.228576e+08
1.106848e+01 3.118997e+08
1.127468e+01 3.015625e+08
1.148472e+01 2.915095e+08
1.169866e+01 2.820424e+08
1.191660e+01 2.726581e+08
1.213859e+01 2.632950e+08
1.236472e+01 2.543165e+08
1.259506e+01 2.456395e+08
1.282970e+01 2.375049e+08
1.306870e+01 2.296198e+08
1.331216e+01 2.221942e+08
1.356015e+01 2.146891e+08
1.381276e+01 2.076659e+08
1.407008e+01 2.008964e+08
1.433219e+01 1.942602e+08
1.459919e+01 1.878144e+08
1.487115e+01 1.816251e+08
1.514819e+01 1.756508e+08
1.543038e+01 1.698827e+08
1.571784e+01 1.644542e+08
1.601064e+01 1.590332e+08
1.630891e+01 1.536971e+08
1.661273e+01 1.485552e+08
1.692220e+01 1.436832e+08
1.723745e+01 1.389063e+08
1.755856e+01 1.342405e+08
1.788566e+01 1.297374e+08
1.821885e+01 1.256280e+08
1.855825e+01 1.215004e+08
1.890397e+01 1.174594e+08
1.925614e+01 1.136489e+08
1.961486e+01 1.098863e+08
1.998026e+01 1.061846e+08
2.035248e+01 1.026766e+08
2.073162e+01 9.915567e+07
2.111783e+01 9.588236e+07
2.151123e+01 9.263695e+07
2.191197e+01 8.950307e+07
2.232016e+01 8.650736e+07
2.273597e+01 8.364481e+07
2.315951e+01 8.086708e+07
2.359095e+01 7.819388e+07
2.403043e+01 7.564248e+07
2.447809e+01 7.314920e+07
2.493409e+01 7.070341e+07
2.539859e+01 6.834280e+07
2.587174e+01 6.619429e+07
2.635371e+01 6.401128e+07
2.684465e+01 6.190401e+07
2.734474e+01 5.987473e+07
2.785414e+01 5.791566e+07
2.837304e+01 5.600226e+07
2.890160e+01 5.417446e+07
2.944000e+01 5.240188e+07
2.998844e+01 5.064103e+07
3.054710e+01 4.894392e+07
3.111616e+01 4.730105e+07
3.169582e+01 4.574652e+07
3.228628e+01 4.417935e+07
3.288774e+01 4.275794e+07
3.350041e+01 4.135375e+07
3.412449e+01 3.995089e+07
3.476019e+01 3.863582e+07
3.540774e+01 3.733710e+07
3.606735e+01 3.609292e+07
3.673925e+01 3.491174e+07
3.742366e+01 3.380931e+07
3.812083e+01 3.274779e+07
3.883098e+01 3.166165e+07
3.955436e+01 3.058432e+07
4.029122e+01 2.954374e+07
4.104181e+01 2.855873e+07
4.180637e+01 2.761728e+07
4.258518e+01 2.672188e+07
4.337850e+01 2.583437e+07
4.418660e+01 2.496637e+07
4.500975e+01 2.413112e+07
4.584824e+01 2.332869e+07
4.670234e+01 2.256651e+07
4.757236e+01 2.181930e+07
4.845859e+01 2.109143e+07
4.936132e+01 2.039946e+07
5.028087e+01 1.974908e+07
5.121755e+01 1.908196e+07
5.217169e+01 1.843786e+07
5.314359e+01 1.782200e+07
5.413360e+01 1.723391e+07
5.514206e+01 1.666420e+07
5.616930e+01 1.610413e+07
5.721568e+01 1.556295e+07
5.828155e+01 1.505252e+07
5.936727e+01 1.455007e+07
6.047322e+01 1.405847e+07
6.159978e+01 1.358934e+07
6.274732e+01 1.313637e+07
6.391624e+01 1.271539e+07
6.510694e+01 1.229102e+07
6.631981e+01 1.189230e+07
6.755528e+01 1.150258e+07
6.881377e+01 1.112999e+07
7.009570e+01 1.077024e+07
7.140151e+01 1.041789e+07
7.273165e+01 1.007504e+07
7.408657e+01 9.749158e+06
7.546673e+01 9.427227e+06
7.687260e+01 9.110449e+06
7.830465e+01 8.802954e+06
7.976339e+01 8.505835e+06
8.124930e+01 8.219604e+06
8.276289e+01 7.946332e+06
8.430468e+01 7.680428e+06
8.587519e+01 7.424609e+06
8.747496e+01 7.177310e+06
8.910453e+01 6.940575e+06
9.076446e+01 6.712060e+06
9.245531e+01 6.491068e+06
9.417766e+01 6.275628e+06
9.593209e+01 6.067114e+06
9.771921e+01 5.864752e+06
9.953962e+01 5.668140e+06
1.013939e+02 5.478108e+06
1.032828e+02 5.292875e+06
1.052069e+02 5.113802e+06
1.071668e+02 4.942895e+06
1.091632e+02 4.792857e+06
1.111968e+02 4.633644e+06
1.132683e+02 4.479720e+06
1.153783e+02 4.330910e+06
1.175277e+02 4.187043e+06
1.197171e+02 4.048181e+06
1.219473e+02 3.915374e+06
1.242191e+02 3.786845e+06
1.265332e+02 3.662537e+06
1.288904e+02 3.541054e+06
1.312915e+02 3.426693e+06
1.337373e+02 3.315231e+06
1.362287e+02 3.204797e+06
1.387665e+02 3.099108e+06
1.413516e+02 2.996847e+06
1.439848e+02 2.897963e+06
1.466671e+02 2.802343e+06
1.493993e+02 2.709879e+06
1.521825e+02 2.620468e+06
1.550175e+02 2.533348e+06
1.579053e+02 2.448055e+06
1.608469e+02 2.365636e+06
1.638434e+02 2.287297e+06
1.668956e+02 2.212325e+06
1.700047e+02 2.138727e+06
1.731717e+02 2.067047e+06
1.763977e+02 1.999695e+06
1.796838e+02 1.934107e+06
1.830312e+02 1.868947e+06
1.864409e+02 1.805969e+06
1.899141e+02 1.745101e+06
1.934520e+02 1.686271e+06
1.970558e+02 1.629898e+06
2.007267e+02 1.575877e+06
2.044661e+02 1.524122e+06
2.082751e+02 1.474066e+06
2.121550e+02 1.424684e+06
2.161073e+02 1.376883e+06
2.201331e+02 1.330685e+06
2.242340e+02 1.286037e+06
2.284112e+02 1.242886e+06
2.326663e+02 1.201183e+06
2.370006e+02 1.161110e+06
2.414157e+02 1.122529e+06
2.459130e+02 1.085907e+06
2.504942e+02 1.050607e+06
2.551606e+02 1.016455e+06
2.599140e+02 9.834126e+05
2.647559e+02 9.511495e+05
2.696881e+02 9.203547e+05
2.747121e+02 8.906091e+05
2.798297e+02 8.613754e+05
2.850426e+02 8.326706e+05
2.903527e+02 8.049231e+05
2.957617e+02 7.781009e+05
3.012714e+02 7.521731e+05
3.068838e+02 7.271099e+05
3.126007e+02 7.028824e+05
3.184242e+02 6.794628e+05
3.243561e+02 6.568309e+05
3.303985e+02 6.351371e+05
3.365535e+02 6.141605e+05
3.428231e+02 5.938774e+05
3.492096e+02 5.742646e+05
3.557150e+02 5.551524e+05
3.623416e+02 5.365834e+05
3.690917e+02 5.185315e+05
3.759675e+02 5.011795e+05
3.829714e+02 4.845510e+05
3.901058e+02 4.684593e+05
3.973730e+02 4.529019e+05
4.047757e+02 4.378611e+05
4.123163e+02 4.233196e+05
4.199973e+02 4.092610e+05
4.278214e+02 3.956691e+05
4.357913e+02 3.825135e+05
4.439097e+02 3.698276e+05
4.521792e+02 3.575851e+05
4.606029e+02 3.457480e+05
4.691835e+02 3.342408e+05
4.779239e+02 3.231052e+05
4.868271e+02 3.123409e+05
4.958962e+02 3.019357e+05
5.051342e+02 2.918775e+05
5.145444e+02 2.821548e+05
5.241298e+02 2.727563e+05
5.338938e+02 2.636712e+05
5.438397e+02 2.548892e+05
5.539709e+02 2.464000e+05
5.642908e+02 2.381939e+05
5.748030e+02 2.302614e+05
5.855110e+02 2.225935e+05
5.964185e+02 2.152116e+05
6.075292e+02 2.081358e+05
6.188468e+02 2.012927e+05
6.303753e+02 1.946746e+05
6.421186e+02 1.882743e+05
6.540806e+02 1.820090e+05
6.662655e+02 1.759289e+05
6.786773e+02 1.700513e+05
6.913204e+02 1.643697e+05
7.041990e+02 1.588773e+05
7.173175e+02 1.535680e+05
7.306804e+02 1.484356e+05
7.442922e+02 1.434743e+05
7.581576e+02 1.386784e+05
7.722814e+02 1.340423e+05
7.866682e+02 1.293714e+05
8.013230e+02 1.249134e+05
8.162509e+02 1.207357e+05
8.314568e+02 1.168777e+05
8.469460e+02 1.131411e+05
8.627237e+02 1.093826e+05
8.787954e+02 1.057680e+05
8.951665e+02 1.022591e+05
9.118425e+02 9.886007e+04
9.288292e+02 9.557382e+04
9.461324e+02 9.239658e+04
9.637579e+02 8.932475e+04
9.817117e+02 8.635482e+04
1.000000e+03 8.348342e+04
