# Energy(MeV) Fluence_Planar_Median(cm^-2*MeV^-1)
5.000000e-02 1.460998e+12
5.049814e-02 1.432121e+12
5.100123e-02 1.403814e+12
5.150934e-02 1.376067e+12
5.202252e-02 1.348868e+12
5.254080e-02 1.322206e+12
5.306425e-02 1.296071e+12
5.359291e-02 1.270452e+12
5.412684e-02 1.245340e+12
5.466609e-02 1.220723e+12
5.521071e-02 1.195849e+12
5.576076e-02 1.171478e+12
5.631629e-02 1.147603e+12
5.687735e-02 1.124214e+12
5.744400e-02 1.101302e+12
5.801630e-02 1.079002e+12
5.859430e-02 1.057447e+12
5.917806e-02 1.036321e+12
5.976763e-02 1.015614e+12
6.036308e-02 9.957105e+11
6.096446e-02 9.763926e+11
6.157183e-02 9.574471e+11
6.218525e-02 9.388667e+11
6.280478e-02 9.203600e+11
6.343049e-02 9.021334e+11
6.406243e-02 8.842675e+11
6.470066e-02 8.667551e+11
6.534526e-02 8.495130e+11
6.599627e-02 8.325649e+11
6.665377e-02 8.159529e+11
6.731782e-02 7.996702e+11
6.798849e-02 7.837106e+11
6.866584e-02 7.680674e+11
6.934994e-02 7.527345e+11
7.004085e-02 7.377599e+11
7.073865e-02 7.234535e+11
7.144339e-02 7.093950e+11
7.215516e-02 6.952729e+11
7.287402e-02 6.814297e+11
7.360005e-02 6.678600e+11
7.433330e-02 6.545584e+11
7.507386e-02 6.415196e+11
7.582180e-02 6.287383e+11
7.657719e-02 6.162330e+11
7.734011e-02 6.043625e+11
7.811062e-02 5.927183e+11
7.888881e-02 5.812959e+11
7.967476e-02 5.700913e+11
8.046854e-02 5.591002e+11
8.127022e-02 5.483186e+11
8.207989e-02 5.377427e+11
8.289763e-02 5.269108e+11
8.372351e-02 5.163284e+11
8.455763e-02 5.064019e+11
8.540005e-02 4.966657e+11
8.625086e-02 4.871161e+11
8.711015e-02 4.777389e+11
8.797801e-02 4.679569e+11
8.885451e-02 4.584329e+11
8.973974e-02 4.496259e+11
9.063379e-02 4.409872e+11
9.153674e-02 4.324679e+11
9.244870e-02 4.240310e+11
9.336974e-02 4.157568e+11
9.429995e-02 4.075274e+11
9.523943e-02 3.993630e+11
9.618827e-02 3.917626e+11
9.714657e-02 3.842259e+11
9.811441e-02 3.767199e+11
9.909190e-02 3.693587e+11
1.000791e-01 3.621397e+11
1.010762e-01 3.547870e+11
1.020832e-01 3.474600e+11
1.031002e-01 3.402558e+11
1.041274e-01 3.332008e+11
1.051647e-01 3.262918e+11
1.062125e-01 3.195260e+11
1.072706e-01 3.129003e+11
1.083393e-01 3.064119e+11
1.094187e-01 3.003176e+11
1.105088e-01 2.943567e+11
1.116098e-01 2.885138e+11
1.127217e-01 2.827866e+11
1.138447e-01 2.771727e+11
1.149789e-01 2.716701e+11
1.161244e-01 2.662764e+11
1.172813e-01 2.609895e+11
1.184498e-01 2.558073e+11
1.196298e-01 2.507278e+11
1.208217e-01 2.457488e+11
1.220254e-01 2.408684e+11
1.232411e-01 2.360847e+11
1.244689e-01 2.313958e+11
1.257089e-01 2.267997e+11
1.269613e-01 2.222946e+11
1.282262e-01 2.178788e+11
1.295037e-01 2.135504e+11
1.307939e-01 2.093078e+11
1.320970e-01 2.051492e+11
1.334130e-01 2.010791e+11
1.347422e-01 1.971057e+11
1.360846e-01 1.932096e+11
1.374403e-01 1.893895e+11
1.388096e-01 1.856438e+11
1.401925e-01 1.818896e+11
1.415892e-01 1.781681e+11
1.429998e-01 1.745227e+11
1.444245e-01 1.709519e+11
1.458634e-01 1.674540e+11
1.473166e-01 1.640277e+11
1.487842e-01 1.606714e+11
1.502665e-01 1.573837e+11
1.517636e-01 1.541882e+11
1.532756e-01 1.510807e+11
1.548026e-01 1.481428e+11
1.563448e-01 1.452609e+11
1.579025e-01 1.424338e+11
1.594756e-01 1.396607e+11
1.610644e-01 1.369403e+11
1.626690e-01 1.342719e+11
1.642897e-01 1.316543e+11
1.659264e-01 1.290866e+11
1.675795e-01 1.265679e+11
1.692491e-01 1.240973e+11
1.709352e-01 1.216433e+11
1.726382e-01 1.191087e+11
1.743582e-01 1.166262e+11
1.760952e-01 1.141946e+11
1.778496e-01 1.118129e+11
1.796215e-01 1.094802e+11
1.814110e-01 1.071954e+11
1.832183e-01 1.049575e+11
1.850437e-01 1.027657e+11
1.868872e-01 1.006189e+11
1.887491e-01 9.851616e+10
1.906296e-01 9.645670e+10
1.925288e-01 9.443959e+10
1.944469e-01 9.247113e+10
1.963841e-01 9.059785e+10
1.983406e-01 8.876136e+10
2.003166e-01 8.696095e+10
2.023123e-01 8.519592e+10
2.043279e-01 8.346560e+10
2.063635e-01 8.179555e+10
2.084195e-01 8.017514e+10
2.104959e-01 7.858613e+10
2.125930e-01 7.702792e+10
2.147110e-01 7.552013e+10
2.168501e-01 7.407134e+10
2.190105e-01 7.265001e+10
2.211925e-01 7.125561e+10
2.233961e-01 6.982295e+10
2.256218e-01 6.839832e+10
2.278696e-01 6.700261e+10
2.301398e-01 6.563523e+10
2.324326e-01 6.432022e+10
2.347482e-01 6.306109e+10
2.370870e-01 6.182627e+10
2.394490e-01 6.061530e+10
2.418345e-01 5.942771e+10
2.442439e-01 5.826306e+10
2.466772e-01 5.712092e+10
2.491348e-01 5.598782e+10
2.516168e-01 5.484976e+10
2.541236e-01 5.373466e+10
2.566554e-01 5.264205e+10
2.592123e-01 5.157149e+10
2.617948e-01 5.052253e+10
2.644030e-01 4.949473e+10
2.670371e-01 4.848768e+10
2.696976e-01 4.747895e+10
2.723845e-01 4.648239e+10
2.750982e-01 4.550609e+10
2.778389e-01 4.454966e+10
2.806069e-01 4.364610e+10
2.834025e-01 4.277531e+10
2.862260e-01 4.188530e+10
2.890775e-01 4.101088e+10
2.919575e-01 4.015462e+10
2.948662e-01 3.931617e+10
2.978039e-01 3.849515e+10
3.007708e-01 3.769119e+10
3.037673e-01 3.690395e+10
3.067937e-01 3.613308e+10
3.098501e-01 3.536483e+10
3.129371e-01 3.456903e+10
3.160548e-01 3.386923e+10
3.192035e-01 3.318426e+10
3.223837e-01 3.251819e+10
3.255955e-01 3.186041e+10
3.288393e-01 3.119086e+10
3.321154e-01 3.053076e+10
3.354242e-01 2.991133e+10
3.387659e-01 2.932057e+10
3.421410e-01 2.874138e+10
3.455496e-01 2.817355e+10
3.489922e-01 2.761685e+10
3.524691e-01 2.704992e+10
3.559807e-01 2.648127e+10
3.595272e-01 2.592283e+10
3.631090e-01 2.537616e+10
3.667266e-01 2.484101e+10
3.703802e-01 2.432609e+10
3.740702e-01 2.382703e+10
3.777969e-01 2.333816e+10
3.815608e-01 2.284356e+10
3.853622e-01 2.234734e+10
3.892014e-01 2.185648e+10
3.930789e-01 2.138391e+10
3.969950e-01 2.092718e+10
4.009502e-01 2.048160e+10
4.049447e-01 2.007007e+10
4.089791e-01 1.965623e+10
4.130536e-01 1.924180e+10
4.171687e-01 1.883919e+10
4.213249e-01 1.844633e+10
4.255224e-01 1.806160e+10
4.297618e-01 1.768483e+10
4.340433e-01 1.730318e+10
4.383676e-01 1.693324e+10
4.427349e-01 1.660717e+10
4.471458e-01 1.627681e+10
4.516005e-01 1.594644e+10
4.560997e-01 1.562267e+10
4.606437e-01 1.530716e+10
4.652329e-01 1.500130e+10
4.698679e-01 1.470144e+10
4.745491e-01 1.439388e+10
4.792769e-01 1.409115e+10
4.840518e-01 1.379474e+10
4.888742e-01 1.349486e+10
4.937447e-01 1.318809e+10
4.986638e-01 1.291252e+10
5.036318e-01 1.264915e+10
5.086493e-01 1.238995e+10
5.137168e-01 1.212553e+10
5.188349e-01 1.185840e+10
5.240038e-01 1.159712e+10
5.292243e-01 1.134157e+10
5.344968e-01 1.109162e+10
5.398219e-01 1.084716e+10
5.452000e-01 1.061803e+10
5.506316e-01 1.039601e+10
5.561174e-01 1.018622e+10
5.616578e-01 9.979430e+09
5.672535e-01 9.773637e+09
5.729048e-01 9.585689e+09
5.786125e-01 9.395102e+09
5.843771e-01 9.207751e+09
5.901990e-01 9.024049e+09
5.960790e-01 8.843925e+09
6.020176e-01 8.667311e+09
6.080153e-01 8.494182e+09
6.140728e-01 8.324341e+09
6.201906e-01 8.157856e+09
6.263694e-01 7.994617e+09
6.326097e-01 7.832015e+09
6.389122e-01 7.665933e+09
6.452775e-01 7.507428e+09
6.517062e-01 7.355571e+09
6.581990e-01 7.206741e+09
6.647564e-01 7.060877e+09
6.713792e-01 6.914819e+09
6.780679e-01 6.766649e+09
6.848233e-01 6.621626e+09
6.916460e-01 6.479682e+09
6.985367e-01 6.335664e+09
7.054960e-01 6.188217e+09
7.125246e-01 6.057212e+09
7.196233e-01 5.931293e+09
7.267927e-01 5.814675e+09
7.340335e-01 5.693614e+09
7.413465e-01 5.549377e+09
7.487323e-01 5.411560e+09
7.561917e-01 5.307141e+09
7.637254e-01 5.199536e+09
7.713341e-01 5.082021e+09
7.790187e-01 4.964867e+09
7.867798e-01 4.859403e+09
7.946183e-01 4.762293e+09
8.025348e-01 4.662364e+09
8.105303e-01 4.561065e+09
8.186053e-01 4.463612e+09
8.267608e-01 4.375323e+09
8.349976e-01 4.282950e+09
8.433165e-01 4.186420e+09
8.517182e-01 4.102952e+09
8.602036e-01 4.021101e+09
8.687735e-01 3.940838e+09
8.774289e-01 3.862132e+09
8.861704e-01 3.784953e+09
8.949991e-01 3.700773e+09
9.039157e-01 3.619680e+09
9.129211e-01 3.549325e+09
9.220163e-01 3.480294e+09
9.312021e-01 3.407346e+09
9.404793e-01 3.332757e+09
9.498491e-01 3.260500e+09
9.593121e-01 3.184139e+09
9.688695e-01 3.123908e+09
9.785220e-01 3.049549e+09
9.882707e-01 2.981016e+09
9.981166e-01 2.916335e+09
1.008061e+00 2.851812e+09
1.018104e+00 2.788288e+09
1.028247e+00 2.722006e+09
1.038491e+00 2.663142e+09
1.048837e+00 2.606203e+09
1.059286e+00 2.547589e+09
1.069839e+00 2.489468e+09
1.080498e+00 2.438434e+09
1.091263e+00 2.386640e+09
1.102135e+00 2.334039e+09
1.113115e+00 2.279802e+09
1.124204e+00 2.233845e+09
1.135405e+00 2.186826e+09
1.146716e+00 2.129999e+09
1.158141e+00 2.081225e+09
1.169679e+00 2.038726e+09
1.181332e+00 1.998020e+09
1.193101e+00 1.952668e+09
1.204988e+00 1.912324e+09
1.216993e+00 1.872378e+09
1.229117e+00 1.830633e+09
1.241363e+00 1.791272e+09
1.253730e+00 1.753336e+09
1.266220e+00 1.712433e+09
1.278835e+00 1.674563e+09
1.291576e+00 1.639687e+09
1.304444e+00 1.605058e+09
1.317439e+00 1.569342e+09
1.330565e+00 1.533103e+09
1.343821e+00 1.498626e+09
1.357209e+00 1.464995e+09
1.370730e+00 1.429944e+09
1.384386e+00 1.397174e+09
1.398179e+00 1.365454e+09
1.412108e+00 1.335895e+09
1.426177e+00 1.305253e+09
1.440385e+00 1.276310e+09
1.454735e+00 1.247880e+09
1.469229e+00 1.220825e+09
1.483866e+00 1.192750e+09
1.498649e+00 1.167169e+09
1.513580e+00 1.142272e+09
1.528659e+00 1.117032e+09
1.543889e+00 1.090128e+09
1.559270e+00 1.063377e+09
1.574805e+00 1.038485e+09
1.590494e+00 1.015719e+09
1.606340e+00 9.934578e+08
1.622343e+00 9.675674e+08
1.638506e+00 9.448368e+08
1.654830e+00 9.230275e+08
1.671317e+00 9.016048e+08
1.687967e+00 8.791883e+08
1.704784e+00 8.599442e+08
1.721768e+00 8.405403e+08
1.738922e+00 8.200120e+08
1.756246e+00 8.017235e+08
1.773743e+00 7.830456e+08
1.791414e+00 7.652159e+08
1.809262e+00 7.488779e+08
1.827287e+00 7.319339e+08
1.845492e+00 7.149886e+08
1.863878e+00 6.991623e+08
1.882447e+00 6.826357e+08
1.901201e+00 6.669097e+08
1.920142e+00 6.500820e+08
1.939272e+00 6.339796e+08
1.958592e+00 6.189195e+08
1.978105e+00 6.044737e+08
1.997813e+00 5.905827e+08
2.017716e+00 5.773661e+08
2.037818e+00 5.630353e+08
2.058120e+00 5.503211e+08
2.078625e+00 5.387049e+08
2.099333e+00 5.268125e+08
2.120248e+00 5.137989e+08
2.141372e+00 5.017187e+08
2.162706e+00 4.907294e+08
2.184252e+00 4.791710e+08
2.206013e+00 4.676074e+08
2.227991e+00 4.572066e+08
2.250188e+00 4.464269e+08
2.272606e+00 4.360301e+08
2.295247e+00 4.260641e+08
2.318114e+00 4.166628e+08
2.341209e+00 4.070565e+08
2.364533e+00 3.970540e+08
2.388091e+00 3.882631e+08
2.411882e+00 3.782836e+08
2.435911e+00 3.695460e+08
2.460179e+00 3.616197e+08
2.484690e+00 3.534822e+08
2.509444e+00 3.450611e+08
2.534445e+00 3.366081e+08
2.559694e+00 3.281647e+08
2.585196e+00 3.203045e+08
2.610951e+00 3.124446e+08
2.636964e+00 3.050392e+08
2.663235e+00 2.983860e+08
2.689768e+00 2.914036e+08
2.716565e+00 2.837530e+08
2.743630e+00 2.763984e+08
2.770964e+00 2.697086e+08
2.798570e+00 2.633836e+08
2.826451e+00 2.568860e+08
2.854610e+00 2.508440e+08
2.883050e+00 2.449120e+08
2.911773e+00 2.389262e+08
2.940782e+00 2.330837e+08
2.970080e+00 2.273751e+08
2.999670e+00 2.218826e+08
3.029555e+00 2.168507e+08
3.059737e+00 2.115232e+08
3.090221e+00 2.063271e+08
3.121008e+00 2.013566e+08
3.152101e+00 1.962017e+08
3.183505e+00 1.907919e+08
3.215221e+00 1.856619e+08
3.247253e+00 1.806674e+08
3.279605e+00 1.763757e+08
3.312279e+00 1.722377e+08
3.345278e+00 1.680731e+08
3.378606e+00 1.635540e+08
3.412266e+00 1.592873e+08
3.446261e+00 1.551311e+08
3.480595e+00 1.512887e+08
3.515271e+00 1.475718e+08
3.550293e+00 1.439696e+08
3.585664e+00 1.404574e+08
3.621386e+00 1.368066e+08
3.657465e+00 1.331195e+08
3.693903e+00 1.295104e+08
3.730705e+00 1.262855e+08
3.767873e+00 1.231145e+08
3.805411e+00 1.199433e+08
3.843323e+00 1.168298e+08
3.881613e+00 1.136190e+08
3.920284e+00 1.104894e+08
3.959341e+00 1.076286e+08
3.998787e+00 1.048638e+08
4.038625e+00 1.022420e+08
4.078861e+00 9.960139e+07
4.119497e+00 9.697565e+07
4.160539e+00 9.448377e+07
4.201989e+00 9.205677e+07
4.243852e+00 8.968815e+07
4.286132e+00 8.741132e+07
4.328834e+00 8.511992e+07
4.371961e+00 8.292265e+07
4.415517e+00 8.081970e+07
4.459508e+00 7.880474e+07
4.503936e+00 7.672932e+07
4.548808e+00 7.472274e+07
4.594126e+00 7.274993e+07
4.639896e+00 7.086834e+07
4.686122e+00 6.906044e+07
4.732808e+00 6.725460e+07
4.779960e+00 6.548800e+07
4.827581e+00 6.382520e+07
4.875677e+00 6.218045e+07
4.924252e+00 6.057649e+07
4.973311e+00 5.902263e+07
5.022858e+00 5.748156e+07
5.072900e+00 5.598723e+07
5.123439e+00 5.455113e+07
5.174483e+00 5.309494e+07
5.226035e+00 5.161334e+07
5.278100e+00 5.028863e+07
5.330684e+00 4.894690e+07
5.383792e+00 4.765315e+07
5.437429e+00 4.640236e+07
5.491601e+00 4.519880e+07
5.546312e+00 4.394833e+07
5.601568e+00 4.275883e+07
5.657375e+00 4.162263e+07
5.713738e+00 4.050582e+07
5.770662e+00 3.942977e+07
5.828153e+00 3.840111e+07
5.886217e+00 3.738604e+07
5.944860e+00 3.637730e+07
6.004087e+00 3.539464e+07
6.063904e+00 3.444100e+07
6.124317e+00 3.351827e+07
6.185331e+00 3.261912e+07
6.246954e+00 3.174297e+07
6.309191e+00 3.088925e+07
6.372047e+00 3.005741e+07
6.435530e+00 2.923724e+07
6.499645e+00 2.843627e+07
6.564399e+00 2.768056e+07
6.629798e+00 2.693822e+07
6.695849e+00 2.620792e+07
6.762558e+00 2.547730e+07
6.829931e+00 2.475444e+07
6.897976e+00 2.406886e+07
6.966698e+00 2.342062e+07
7.036105e+00 2.278945e+07
7.106204e+00 2.216577e+07
7.177001e+00 2.154771e+07
7.248503e+00 2.094689e+07
7.320718e+00 2.036283e+07
7.393652e+00 1.980793e+07
7.467313e+00 1.927984e+07
7.541707e+00 1.875299e+07
7.616843e+00 1.822591e+07
7.692728e+00 1.771252e+07
7.769368e+00 1.720630e+07
7.846772e+00 1.671456e+07
7.924947e+00 1.623687e+07
8.003901e+00 1.577284e+07
8.083641e+00 1.533781e+07
8.164176e+00 1.492002e+07
8.245513e+00 1.450725e+07
8.327661e+00 1.409184e+07
8.410627e+00 1.368832e+07
8.494420e+00 1.329635e+07
8.579047e+00 1.292178e+07
8.664517e+00 1.256564e+07
8.750839e+00 1.221913e+07
8.838021e+00 1.187480e+07
8.926072e+00 1.153472e+07
9.015000e+00 1.120438e+07
9.104813e+00 1.088351e+07
9.195522e+00 1.057182e+07
9.287134e+00 1.026906e+07
9.379659e+00 9.974968e+06
9.473106e+00 9.689302e+06
9.567484e+00 9.411817e+06
9.662802e+00 9.142279e+06
9.759069e+00 8.880461e+06
9.856296e+00 8.626142e+06
9.954491e+00 8.373918e+06
1.005366e+01 8.128513e+06
1.015383e+01 7.893571e+06
1.025499e+01 7.666799e+06
1.035715e+01 7.446541e+06
1.046034e+01 7.232874e+06
1.056455e+01 7.027120e+06
1.066980e+01 6.827220e+06
1.077610e+01 6.633006e+06
1.088346e+01 6.444317e+06
1.099189e+01 6.260996e+06
1.110140e+01 6.082890e+06
1.121200e+01 5.909850e+06
1.132370e+01 5.741733e+06
1.143652e+01 5.576751e+06
1.155046e+01 5.416964e+06
1.166553e+01 5.262613e+06
1.178175e+01 5.110022e+06
1.189913e+01 4.962237e+06
1.201767e+01 4.822966e+06
1.213740e+01 4.687894e+06
1.225832e+01 4.553547e+06
1.238045e+01 4.422822e+06
1.250379e+01 4.296884e+06
1.262836e+01 4.174535e+06
1.275418e+01 4.056140e+06
1.288124e+01 3.941803e+06
1.300958e+01 3.830732e+06
1.313919e+01 3.723365e+06
1.327009e+01 3.619006e+06
1.340229e+01 3.517186e+06
1.353582e+01 3.417698e+06
1.367067e+01 3.321024e+06
1.380687e+01 3.227084e+06
1.394442e+01 3.135802e+06
1.408334e+01 3.047102e+06
1.422365e+01 2.960499e+06
1.436536e+01 2.875204e+06
1.450848e+01 2.792368e+06
1.465302e+01 2.711919e+06
1.479900e+01 2.633789e+06
1.494644e+01 2.560011e+06
1.509535e+01 2.489014e+06
1.524574e+01 2.420776e+06
1.539763e+01 2.354410e+06
1.555103e+01 2.287255e+06
1.570596e+01 2.222072e+06
1.586243e+01 2.158121e+06
1.602047e+01 2.095698e+06
1.618007e+01 2.035081e+06
1.634127e+01 1.976428e+06
1.650407e+01 1.921422e+06
1.666850e+01 1.867947e+06
1.683456e+01 1.815961e+06
1.700228e+01 1.765422e+06
1.717167e+01 1.716290e+06
1.734275e+01 1.667985e+06
1.751553e+01 1.620749e+06
1.769003e+01 1.574845e+06
1.786627e+01 1.530241e+06
1.804426e+01 1.486900e+06
1.822403e+01 1.444787e+06
1.840560e+01 1.403867e+06
1.858896e+01 1.364106e+06
1.877416e+01 1.325471e+06
1.896120e+01 1.287991e+06
1.915011e+01 1.251752e+06
1.934089e+01 1.216534e+06
1.953358e+01 1.182306e+06
1.972819e+01 1.149042e+06
1.992473e+01 1.116713e+06
2.012324e+01 1.084623e+06
2.032372e+01 1.052856e+06
2.052620e+01 1.022533e+06
2.073070e+01 9.928474e+05
2.093723e+01 9.636451e+05
2.114582e+01 9.353017e+05
2.135649e+01 9.076180e+05
2.156926e+01 8.806867e+05
2.178415e+01 8.548637e+05
2.200118e+01 8.297264e+05
2.222037e+01 8.053048e+05
2.244174e+01 7.816912e+05
2.266532e+01 7.589245e+05
2.289113e+01 7.366717e+05
2.311919e+01 7.150715e+05
2.334952e+01 6.941045e+05
2.358214e+01 6.737524e+05
2.381708e+01 6.539970e+05
2.405437e+01 6.348208e+05
2.429401e+01 6.162069e+05
2.453605e+01 5.981563e+05
2.478049e+01 5.808471e+05
2.502737e+01 5.640388e+05
2.527671e+01 5.477170e+05
2.552854e+01 5.318676e+05
2.578287e+01 5.166280e+05
2.603974e+01 5.025064e+05
2.629916e+01 4.887716e+05
2.656117e+01 4.752923e+05
2.682580e+01 4.617371e+05
2.709305e+01 4.489550e+05
2.736297e+01 4.358112e+05
2.763558e+01 4.230058e+05
2.791091e+01 4.105766e+05
2.818897e+01 3.990314e+05
2.846981e+01 3.874685e+05
2.875345e+01 3.760749e+05
2.903991e+01 3.651988e+05
2.932923e+01 3.546622e+05
2.962143e+01 3.444296e+05
2.991654e+01 3.344923e+05
3.021458e+01 3.249871e+05
3.051560e+01 3.158189e+05
3.081962e+01 3.069094e+05
3.112667e+01 2.982513e+05
3.143677e+01 2.898375e+05
3.174997e+01 2.816653e+05
3.206628e+01 2.738187e+05
3.238575e+01 2.661906e+05
3.270840e+01 2.587751e+05
3.303426e+01 2.515661e+05
3.336338e+01 2.445580e+05
3.369576e+01 2.377085e+05
3.403147e+01 2.308867e+05
3.437051e+01 2.242609e+05
3.471293e+01 2.177330e+05
3.505877e+01 2.112569e+05
3.540805e+01 2.049735e+05
3.576081e+01 1.988770e+05
3.611708e+01 1.930959e+05
3.647691e+01 1.876213e+05
3.684031e+01 1.823024e+05
3.720734e+01 1.771343e+05
3.757803e+01 1.721127e+05
3.795241e+01 1.672335e+05
3.833052e+01 1.625538e+05
3.871239e+01 1.580303e+05
3.909807e+01 1.536328e+05
3.948759e+01 1.493576e+05
3.988100e+01 1.452013e+05
4.027832e+01 1.411608e+05
4.067960e+01 1.371754e+05
4.108488e+01 1.332575e+05
4.149420e+01 1.294030e+05
4.190759e+01 1.256664e+05
4.232510e+01 1.220724e+05
4.274678e+01 1.185812e+05
4.317265e+01 1.152084e+05
4.360277e+01 1.119358e+05
4.403717e+01 1.087562e+05
4.447590e+01 1.056669e+05
4.491900e+01 1.025912e+05
4.536651e+01 9.967166e+04
4.581848e+01 9.684563e+04
4.627496e+01 9.409984e+04
4.673598e+01 9.143199e+04
4.720160e+01 8.883989e+04
4.767186e+01 8.628956e+04
4.814680e+01 8.381616e+04
4.862647e+01 8.144306e+04
4.911092e+01 7.913719e+04
4.960020e+01 7.689664e+04
5.009435e+01 7.465989e+04
5.059342e+01 7.244880e+04
5.109747e+01 7.030322e+04
5.160654e+01 6.826072e+04
5.212068e+01 6.630388e+04
5.263994e+01 6.440313e+04
5.316438e+01 6.251833e+04
5.369404e+01 6.063332e+04
5.422898e+01 5.882826e+04
5.476924e+01 5.711134e+04
5.531489e+01 5.551428e+04
5.586598e+01 5.392122e+04
5.642256e+01 5.236163e+04
5.698468e+01 5.087024e+04
5.755240e+01 4.941272e+04
5.812578e+01 4.798986e+04
5.870487e+01 4.660798e+04
5.928972e+01 4.526590e+04
5.988041e+01 4.396246e+04
6.047698e+01 4.271360e+04
6.107949e+01 4.150371e+04
6.168801e+01 4.032939e+04
6.230259e+01 3.919132e+04
6.292329e+01 3.807584e+04
6.355018e+01 3.699734e+04
6.418331e+01 3.594241e+04
6.482275e+01 3.489184e+04
6.546856e+01 3.387199e+04
6.612080e+01 3.288934e+04
6.677954e+01 3.194284e+04
6.744485e+01 3.102359e+04
6.811678e+01 3.012490e+04
6.879541e+01 2.924908e+04
6.948080e+01 2.839149e+04
7.017301e+01 2.755904e+04
7.087213e+01 2.675100e+04
7.157820e+01 2.596666e+04
7.229132e+01 2.520532e+04
7.301153e+01 2.446630e+04
7.373893e+01 2.375657e+04
7.447356e+01 2.307917e+04
7.521552e+01 2.242109e+04
7.596487e+01 2.178178e+04
7.672169e+01 2.115905e+04
7.748604e+01 2.055068e+04
7.825801e+01 1.996439e+04
7.903767e+01 1.938787e+04
7.982510e+01 1.882317e+04
8.062038e+01 1.828114e+04
8.142357e+01 1.775500e+04
8.223477e+01 1.724566e+04
8.305405e+01 1.675094e+04
8.388150e+01 1.627041e+04
8.471718e+01 1.580367e+04
8.556119e+01 1.534656e+04
8.641361e+01 1.490140e+04
8.727453e+01 1.447068e+04
8.814402e+01 1.405399e+04
8.902217e+01 1.364626e+04
8.990907e+01 1.324726e+04
9.080481e+01 1.285994e+04
9.170947e+01 1.248889e+04
9.262314e+01 1.213782e+04
9.354592e+01 1.180473e+04
9.447789e+01 1.147341e+04
9.541915e+01 1.114890e+04
9.636978e+01 1.083465e+04
9.732988e+01 1.053215e+04
9.829955e+01 1.023151e+04
9.927888e+01 9.937724e+03
