# Energy(MeV) Fluence_Planar_Median(cm^-2*MeV^-1)
5.000000e-02 1.685515e+12
5.062360e-02 1.644290e+12
5.125498e-02 1.604072e+12
5.189423e-02 1.564836e+12
5.254145e-02 1.526557e+12
5.319675e-02 1.489213e+12
5.386022e-02 1.452781e+12
5.453196e-02 1.417239e+12
5.521208e-02 1.382564e+12
5.590069e-02 1.348736e+12
5.659788e-02 1.315734e+12
5.730377e-02 1.283538e+12
5.801846e-02 1.252128e+12
5.874207e-02 1.221485e+12
5.947470e-02 1.191591e+12
6.021646e-02 1.162426e+12
6.096748e-02 1.133974e+12
6.172787e-02 1.106507e+12
6.249774e-02 1.079799e+12
6.327721e-02 1.053733e+12
6.406640e-02 1.028294e+12
6.486544e-02 1.003467e+12
6.567444e-02 9.792378e+11
6.649353e-02 9.555909e+11
6.732283e-02 9.325130e+11
6.816248e-02 9.099903e+11
6.901261e-02 8.880095e+11
6.987333e-02 8.665575e+11
7.074479e-02 8.456218e+11
7.162712e-02 8.251898e+11
7.252045e-02 8.052495e+11
7.342492e-02 7.857891e+11
7.434068e-02 7.667971e+11
7.526786e-02 7.482621e+11
7.620660e-02 7.301733e+11
7.715704e-02 7.125199e+11
7.811934e-02 6.951914e+11
7.909365e-02 6.781130e+11
8.008010e-02 6.614527e+11
8.107886e-02 6.452001e+11
8.209008e-02 6.293454e+11
8.311390e-02 6.138788e+11
8.415050e-02 5.987908e+11
8.520002e-02 5.840722e+11
8.626263e-02 5.696170e+11
8.733850e-02 5.553913e+11
8.842779e-02 5.413398e+11
8.953066e-02 5.276429e+11
9.064728e-02 5.142917e+11
9.177783e-02 5.012775e+11
9.292249e-02 4.885919e+11
9.408141e-02 4.762264e+11
9.525480e-02 4.641827e+11
9.644281e-02 4.527331e+11
9.764565e-02 4.415649e+11
9.886348e-02 4.306712e+11
1.000965e-01 4.200452e+11
1.013449e-01 4.096805e+11
1.026089e-01 3.995705e+11
1.038886e-01 3.897091e+11
1.051843e-01 3.800901e+11
1.064962e-01 3.707076e+11
1.078244e-01 3.615558e+11
1.091692e-01 3.526290e+11
1.105307e-01 3.441201e+11
1.119093e-01 3.358488e+11
1.133050e-01 3.277752e+11
1.147181e-01 3.198945e+11
1.161489e-01 3.122021e+11
1.175975e-01 3.046937e+11
1.190642e-01 2.973646e+11
1.205492e-01 2.902108e+11
1.220526e-01 2.832281e+11
1.235749e-01 2.764122e+11
1.251161e-01 2.697594e+11
1.266765e-01 2.633413e+11
1.282565e-01 2.571555e+11
1.298561e-01 2.511119e+11
1.314756e-01 2.452074e+11
1.331154e-01 2.394388e+11
1.347756e-01 2.338030e+11
1.364565e-01 2.282970e+11
1.381584e-01 2.229177e+11
1.398815e-01 2.176624e+11
1.416261e-01 2.125282e+11
1.433925e-01 2.075124e+11
1.451809e-01 2.026122e+11
1.469916e-01 1.978250e+11
1.488248e-01 1.931071e+11
1.506810e-01 1.881434e+11
1.525603e-01 1.832491e+11
1.544630e-01 1.785483e+11
1.563895e-01 1.743222e+11
1.583400e-01 1.701943e+11
1.603148e-01 1.661461e+11
1.623142e-01 1.621643e+11
1.643386e-01 1.582762e+11
1.663882e-01 1.544796e+11
1.684634e-01 1.507724e+11
1.705645e-01 1.471525e+11
1.726918e-01 1.436178e+11
1.748456e-01 1.401665e+11
1.770262e-01 1.367965e+11
1.792341e-01 1.335059e+11
1.814695e-01 1.302929e+11
1.837328e-01 1.271557e+11
1.860243e-01 1.240925e+11
1.883444e-01 1.211015e+11
1.906934e-01 1.181812e+11
1.930718e-01 1.152925e+11
1.954798e-01 1.124682e+11
1.979178e-01 1.097123e+11
2.003862e-01 1.070233e+11
2.028854e-01 1.043994e+11
2.054158e-01 1.018391e+11
2.079777e-01 9.934089e+10
2.105716e-01 9.690328e+10
2.131979e-01 9.455001e+10
2.158569e-01 9.229008e+10
2.185491e-01 8.999223e+10
2.212748e-01 8.775103e+10
2.240345e-01 8.557410e+10
2.268287e-01 8.339064e+10
2.296577e-01 8.125996e+10
2.325220e-01 7.918322e+10
2.354220e-01 7.715906e+10
2.383582e-01 7.518616e+10
2.413310e-01 7.326322e+10
2.443409e-01 7.138899e+10
2.473883e-01 6.956223e+10
2.504737e-01 6.778176e+10
2.535976e-01 6.604639e+10
2.567605e-01 6.436522e+10
2.599628e-01 6.277608e+10
2.632050e-01 6.115165e+10
2.664877e-01 5.951355e+10
2.698114e-01 5.791907e+10
2.731764e-01 5.640834e+10
2.765835e-01 5.501873e+10
2.800330e-01 5.366266e+10
2.835256e-01 5.229022e+10
2.870617e-01 5.093583e+10
2.906420e-01 4.961627e+10
2.942668e-01 4.833064e+10
2.979369e-01 4.707807e+10
3.016528e-01 4.589913e+10
3.054150e-01 4.477909e+10
3.092241e-01 4.368590e+10
3.130808e-01 4.261893e+10
3.169855e-01 4.157756e+10
3.209390e-01 4.056117e+10
3.249417e-01 3.956917e+10
3.289944e-01 3.860099e+10
3.330976e-01 3.765606e+10
3.372520e-01 3.671709e+10
3.414582e-01 3.575127e+10
3.457168e-01 3.481070e+10
3.500286e-01 3.395947e+10
3.543942e-01 3.313159e+10
3.588142e-01 3.229127e+10
3.632893e-01 3.147199e+10
3.678202e-01 3.067323e+10
3.724077e-01 2.989449e+10
3.770524e-01 2.912459e+10
3.817549e-01 2.835252e+10
3.865162e-01 2.760072e+10
3.913368e-01 2.688135e+10
3.962176e-01 2.618341e+10
4.011592e-01 2.550272e+10
4.061624e-01 2.484990e+10
4.112281e-01 2.422441e+10
4.163569e-01 2.355971e+10
4.215497e-01 2.295810e+10
4.268073e-01 2.233595e+10
4.321304e-01 2.172324e+10
4.375199e-01 2.114610e+10
4.429767e-01 2.058410e+10
4.485015e-01 2.001657e+10
4.540952e-01 1.946835e+10
4.597587e-01 1.897042e+10
4.654928e-01 1.848109e+10
4.712984e-01 1.800565e+10
4.771764e-01 1.754219e+10
4.831277e-01 1.708447e+10
4.891533e-01 1.658789e+10
4.952540e-01 1.610117e+10
5.014308e-01 1.568920e+10
5.076847e-01 1.529041e+10
5.140165e-01 1.489259e+10
5.204273e-01 1.449905e+10
5.269181e-01 1.411841e+10
5.334898e-01 1.375906e+10
5.401435e-01 1.340030e+10
5.468801e-01 1.304666e+10
5.537008e-01 1.268786e+10
5.606066e-01 1.233833e+10
5.675984e-01 1.200767e+10
5.746775e-01 1.169729e+10
5.818449e-01 1.139473e+10
5.891017e-01 1.109757e+10
5.964489e-01 1.079317e+10
6.038878e-01 1.049634e+10
6.114195e-01 1.019314e+10
6.190451e-01 9.904984e+09
6.267658e-01 9.633289e+09
6.345829e-01 9.390451e+09
6.424974e-01 9.138622e+09
6.505106e-01 8.881397e+09
6.586238e-01 8.635292e+09
6.668381e-01 8.399754e+09
6.751549e-01 8.162988e+09
6.835754e-01 7.947497e+09
6.921010e-01 7.727732e+09
7.007328e-01 7.529167e+09
7.094724e-01 7.326715e+09
7.183209e-01 7.135726e+09
7.272798e-01 6.948233e+09
7.363504e-01 6.772837e+09
7.455342e-01 6.601584e+09
7.548325e-01 6.419187e+09
7.642467e-01 6.234023e+09
7.737784e-01 6.063924e+09
7.834289e-01 5.899628e+09
7.931999e-01 5.744063e+09
8.030926e-01 5.590184e+09
8.131088e-01 5.435135e+09
8.232499e-01 5.273891e+09
8.335175e-01 5.127758e+09
8.439131e-01 4.988933e+09
8.544383e-01 4.860303e+09
8.650949e-01 4.730033e+09
8.758843e-01 4.601300e+09
8.868084e-01 4.475655e+09
8.978686e-01 4.356026e+09
9.090668e-01 4.229545e+09
9.204047e-01 4.109912e+09
9.318840e-01 4.001368e+09
9.435064e-01 3.900600e+09
9.552738e-01 3.802473e+09
9.671880e-01 3.704639e+09
9.792507e-01 3.610872e+09
9.914639e-01 3.510105e+09
1.003829e+00 3.421292e+09
1.016349e+00 3.343174e+09
1.029025e+00 3.276958e+09
1.041859e+00 3.187137e+09
1.054853e+00 3.125809e+09
1.068009e+00 3.047916e+09
1.081329e+00 2.954619e+09
1.094816e+00 2.878700e+09
1.108470e+00 2.819785e+09
1.122295e+00 2.756800e+09
1.136292e+00 2.695539e+09
1.150464e+00 2.626624e+09
1.164813e+00 2.558003e+09
1.179340e+00 2.494093e+09
1.194049e+00 2.433347e+09
1.208941e+00 2.370477e+09
1.224019e+00 2.301535e+09
1.239285e+00 2.245197e+09
1.254741e+00 2.190216e+09
1.270391e+00 2.139617e+09
1.286235e+00 2.088346e+09
1.302277e+00 2.028465e+09
1.318519e+00 1.972770e+09
1.334963e+00 1.918271e+09
1.351613e+00 1.866224e+09
1.368470e+00 1.812337e+09
1.385538e+00 1.761350e+09
1.402818e+00 1.714019e+09
1.420314e+00 1.666329e+09
1.438028e+00 1.616601e+09
1.455963e+00 1.575269e+09
1.474122e+00 1.526374e+09
1.492507e+00 1.482342e+09
1.511122e+00 1.442596e+09
1.529969e+00 1.403037e+09
1.549050e+00 1.362869e+09
1.568370e+00 1.327198e+09
1.587931e+00 1.286914e+09
1.607735e+00 1.252691e+09
1.627787e+00 1.218804e+09
1.648089e+00 1.187462e+09
1.668644e+00 1.153067e+09
1.689455e+00 1.118447e+09
1.710526e+00 1.088011e+09
1.731859e+00 1.055593e+09
1.753459e+00 1.024025e+09
1.775328e+00 9.945605e+08
1.797470e+00 9.677335e+08
1.819888e+00 9.406119e+08
1.842586e+00 9.128769e+08
1.865567e+00 8.845734e+08
1.888834e+00 8.572416e+08
1.912391e+00 8.322432e+08
1.936243e+00 8.084481e+08
1.960392e+00 7.841370e+08
1.984842e+00 7.604954e+08
2.009596e+00 7.377796e+08
2.034660e+00 7.160011e+08
2.060036e+00 6.941776e+08
2.085729e+00 6.741011e+08
2.111742e+00 6.541353e+08
2.138080e+00 6.347810e+08
2.164746e+00 6.150250e+08
2.191745e+00 5.971548e+08
2.219080e+00 5.797360e+08
2.246756e+00 5.609085e+08
2.274778e+00 5.437242e+08
2.303149e+00 5.273709e+08
2.331874e+00 5.110945e+08
2.360957e+00 4.951471e+08
2.390403e+00 4.795329e+08
2.420216e+00 4.651035e+08
2.450401e+00 4.504443e+08
2.480962e+00 4.366884e+08
2.511905e+00 4.238993e+08
2.543233e+00 4.118666e+08
2.574952e+00 3.988685e+08
2.607067e+00 3.862476e+08
2.639582e+00 3.743038e+08
2.672503e+00 3.624796e+08
2.705835e+00 3.509127e+08
2.739582e+00 3.399789e+08
2.773750e+00 3.292168e+08
2.808344e+00 3.183703e+08
2.843370e+00 3.077149e+08
2.878832e+00 2.975978e+08
2.914737e+00 2.882893e+08
2.951089e+00 2.789099e+08
2.987895e+00 2.698527e+08
3.025160e+00 2.611394e+08
3.062890e+00 2.526612e+08
3.101090e+00 2.441833e+08
3.139767e+00 2.361153e+08
3.178926e+00 2.282677e+08
3.218574e+00 2.208409e+08
3.258716e+00 2.134839e+08
3.299358e+00 2.063187e+08
3.340508e+00 1.997707e+08
3.382171e+00 1.932366e+08
3.424353e+00 1.867828e+08
3.467062e+00 1.808881e+08
3.510303e+00 1.750364e+08
3.554083e+00 1.692333e+08
3.598410e+00 1.635975e+08
3.643289e+00 1.580561e+08
3.688728e+00 1.528290e+08
3.734734e+00 1.478642e+08
3.781313e+00 1.430564e+08
3.828474e+00 1.382203e+08
3.876223e+00 1.335848e+08
3.924567e+00 1.292642e+08
3.973514e+00 1.248705e+08
4.023072e+00 1.206932e+08
4.073247e+00 1.166749e+08
4.124049e+00 1.127853e+08
4.175484e+00 1.092003e+08
4.227560e+00 1.055240e+08
4.280287e+00 1.019434e+08
4.333670e+00 9.847968e+07
4.387720e+00 9.512470e+07
4.442443e+00 9.189388e+07
4.497849e+00 8.877282e+07
4.553947e+00 8.575779e+07
4.610743e+00 8.284518e+07
4.668248e+00 8.006003e+07
4.726471e+00 7.737523e+07
4.785419e+00 7.476553e+07
4.845103e+00 7.224387e+07
4.905531e+00 6.980727e+07
4.966713e+00 6.745286e+07
5.028657e+00 6.516005e+07
5.091375e+00 6.290728e+07
5.154874e+00 6.073239e+07
5.219166e+00 5.867113e+07
5.284259e+00 5.668367e+07
5.350165e+00 5.475372e+07
5.416892e+00 5.288968e+07
5.484451e+00 5.108614e+07
5.552853e+00 4.934156e+07
5.622108e+00 4.765621e+07
5.692227e+00 4.602843e+07
5.763220e+00 4.444607e+07
5.835099e+00 4.291498e+07
5.907875e+00 4.143663e+07
5.981558e+00 4.002809e+07
6.056159e+00 3.867652e+07
6.131692e+00 3.736510e+07
6.208166e+00 3.608942e+07
6.285594e+00 3.487079e+07
6.363988e+00 3.369332e+07
6.443360e+00 3.255561e+07
6.523721e+00 3.145632e+07
6.605085e+00 3.037877e+07
6.687464e+00 2.933652e+07
6.770870e+00 2.833003e+07
6.855316e+00 2.735807e+07
6.940815e+00 2.641945e+07
7.027381e+00 2.551304e+07
7.115026e+00 2.463773e+07
7.203765e+00 2.379245e+07
7.293610e+00 2.297617e+07
7.384576e+00 2.218789e+07
7.476676e+00 2.142755e+07
7.569925e+00 2.069566e+07
7.664337e+00 1.998876e+07
7.759927e+00 1.930601e+07
7.856709e+00 1.864658e+07
7.954697e+00 1.801041e+07
8.053908e+00 1.740026e+07
8.154356e+00 1.681539e+07
8.256057e+00 1.625019e+07
8.359027e+00 1.570399e+07
8.463281e+00 1.517615e+07
8.568834e+00 1.466006e+07
8.675705e+00 1.416150e+07
8.783908e+00 1.367989e+07
8.893461e+00 1.321466e+07
9.004380e+00 1.276525e+07
9.116683e+00 1.233113e+07
9.230386e+00 1.191238e+07
9.345507e+00 1.150964e+07
9.462064e+00 1.111856e+07
9.580075e+00 1.073808e+07
9.699557e+00 1.037218e+07
9.820530e+00 1.001937e+07
9.943012e+00 9.674077e+06
1.006702e+01 9.340690e+06
1.019258e+01 9.018795e+06
1.031970e+01 8.708163e+06
1.044841e+01 8.413180e+06
1.057872e+01 8.128190e+06
1.071066e+01 7.856439e+06
1.084424e+01 7.596071e+06
1.097949e+01 7.337102e+06
1.111642e+01 7.085626e+06
1.125507e+01 6.841024e+06
1.139544e+01 6.604556e+06
1.153756e+01 6.376854e+06
1.168146e+01 6.155861e+06
1.182715e+01 5.943077e+06
1.197466e+01 5.737649e+06
1.212401e+01 5.539207e+06
1.227522e+01 5.345448e+06
1.242831e+01 5.158722e+06
1.258332e+01 4.983443e+06
1.274026e+01 4.814370e+06
1.289916e+01 4.649496e+06
1.306003e+01 4.490019e+06
1.322292e+01 4.336011e+06
1.338783e+01 4.187286e+06
1.355481e+01 4.043662e+06
1.372386e+01 3.905681e+06
1.389503e+01 3.773402e+06
1.406833e+01 3.645604e+06
1.424379e+01 3.522135e+06
1.442143e+01 3.402847e+06
1.460130e+01 3.287600e+06
1.478340e+01 3.174408e+06
1.496778e+01 3.065419e+06
1.515446e+01 2.960790e+06
1.534347e+01 2.859733e+06
1.553483e+01 2.762441e+06
1.572858e+01 2.668922e+06
1.592475e+01 2.577847e+06
1.612336e+01 2.489510e+06
1.632445e+01 2.405133e+06
1.652805e+01 2.323617e+06
1.673419e+01 2.244299e+06
1.694290e+01 2.166932e+06
1.715421e+01 2.092231e+06
1.736815e+01 2.021050e+06
1.758477e+01 1.952365e+06
1.780409e+01 1.884868e+06
1.802614e+01 1.819215e+06
1.825096e+01 1.756228e+06
1.847859e+01 1.695951e+06
1.870905e+01 1.637742e+06
1.894239e+01 1.581531e+06
1.917864e+01 1.527798e+06
1.941784e+01 1.475262e+06
1.966001e+01 1.424595e+06
1.990521e+01 1.375936e+06
2.015347e+01 1.328938e+06
2.040483e+01 1.283987e+06
2.065931e+01 1.240211e+06
2.091698e+01 1.197490e+06
2.117785e+01 1.156462e+06
2.144198e+01 1.116961e+06
2.170941e+01 1.078809e+06
2.198017e+01 1.041528e+06
2.225430e+01 1.005496e+06
2.253186e+01 9.707102e+05
2.281288e+01 9.369944e+05
2.309740e+01 9.041516e+05
2.338547e+01 8.730027e+05
2.367713e+01 8.437087e+05
2.397243e+01 8.154007e+05
2.427142e+01 7.880425e+05
2.457413e+01 7.616022e+05
2.488062e+01 7.357375e+05
2.519093e+01 7.107437e+05
2.550511e+01 6.866432e+05
2.582321e+01 6.631897e+05
2.614528e+01 6.405373e+05
2.647136e+01 6.186586e+05
2.680151e+01 5.975273e+05
2.713578e+01 5.771177e+05
2.747421e+01 5.574052e+05
2.781687e+01 5.383661e+05
2.816380e+01 5.199773e+05
2.851506e+01 5.022165e+05
2.887070e+01 4.851073e+05
2.923078e+01 4.688132e+05
2.959534e+01 4.530666e+05
2.996446e+01 4.378489e+05
3.033817e+01 4.231426e+05
3.071655e+01 4.086013e+05
3.109965e+01 3.944604e+05
3.148752e+01 3.808089e+05
3.188023e+01 3.677217e+05
3.227784e+01 3.552310e+05
3.268041e+01 3.432405e+05
3.308800e+01 3.318241e+05
3.350067e+01 3.206004e+05
3.391849e+01 3.095771e+05
3.434152e+01 2.990575e+05
3.476983e+01 2.889512e+05
3.520348e+01 2.790756e+05
3.564254e+01 2.694546e+05
3.608707e+01 2.601654e+05
3.653715e+01 2.512873e+05
3.699284e+01 2.427667e+05
3.745421e+01 2.345461e+05
3.792134e+01 2.266040e+05
3.839430e+01 2.189309e+05
3.887315e+01 2.115177e+05
3.935798e+01 2.042608e+05
3.984885e+01 1.972492e+05
4.034584e+01 1.904239e+05
4.084904e+01 1.838309e+05
4.135850e+01 1.774744e+05
4.187433e+01 1.714652e+05
4.239658e+01 1.656595e+05
4.292535e+01 1.600027e+05
4.346072e+01 1.545279e+05
4.400276e+01 1.492404e+05
4.455156e+01 1.441338e+05
4.510721e+01 1.392020e+05
4.566978e+01 1.344389e+05
4.623938e+01 1.298388e+05
4.681607e+01 1.253878e+05
4.739996e+01 1.210645e+05
4.799113e+01 1.168902e+05
4.858968e+01 1.128599e+05
4.919569e+01 1.089686e+05
4.980926e+01 1.052115e+05
5.043048e+01 1.015529e+05
5.105945e+01 9.803746e+04
5.169626e+01 9.474027e+04
5.234101e+01 9.152912e+04
5.299381e+01 8.842681e+04
5.365475e+01 8.542966e+04
5.432393e+01 8.253410e+04
5.500146e+01 7.966858e+04
5.568743e+01 7.690214e+04
5.638197e+01 7.429824e+04
5.708516e+01 7.178656e+04
5.779713e+01 6.935980e+04
5.851797e+01 6.699699e+04
5.924781e+01 6.469134e+04
5.998675e+01 6.247608e+04
6.073490e+01 6.033613e+04
6.149239e+01 5.826233e+04
6.225932e+01 5.625685e+04
6.303582e+01 5.431970e+04
6.382200e+01 5.244835e+04
6.461798e+01 5.065280e+04
6.542390e+01 4.893484e+04
6.623986e+01 4.727516e+04
6.706601e+01 4.566999e+04
6.790245e+01 4.412019e+04
6.874933e+01 4.261856e+04
6.960677e+01 4.118374e+04
7.047491e+01 3.979723e+04
7.135387e+01 3.845742e+04
7.224380e+01 3.715428e+04
7.314482e+01 3.588021e+04
7.405708e+01 3.464983e+04
7.498072e+01 3.346165e+04
7.591588e+01 3.231421e+04
7.686270e+01 3.120395e+04
7.782133e+01 3.013086e+04
7.879192e+01 2.908886e+04
7.977461e+01 2.807955e+04
8.076956e+01 2.710781e+04
8.177691e+01 2.617673e+04
8.279683e+01 2.527902e+04
8.382948e+01 2.441209e+04
8.487500e+01 2.357490e+04
8.593356e+01 2.276642e+04
8.700532e+01 2.197761e+04
8.809045e+01 2.121184e+04
8.918911e+01 2.048597e+04
9.030148e+01 1.978309e+04
9.142771e+01 1.910177e+04
9.256800e+01 1.844391e+04
9.372251e+01 1.780872e+04
9.489141e+01 1.719539e+04
9.607490e+01 1.660320e+04
9.727314e+01 1.603139e+04
9.848633e+01 1.548165e+04
9.971465e+01 1.495799e+04
1.009583e+02 1.444529e+04
1.022174e+02 1.394903e+04
1.034923e+02 1.346982e+04
1.047831e+02 1.300708e+04
1.060899e+02 1.255969e+04
1.074131e+02 1.212667e+04
1.087527e+02 1.170858e+04
1.101091e+02 1.130490e+04
1.114824e+02 1.091515e+04
1.128728e+02 1.053883e+04
1.142805e+02 1.017548e+04
1.157058e+02 9.824661e+03
1.171489e+02 9.488115e+03
1.186100e+02 9.163497e+03
1.200893e+02 8.856739e+03
1.215870e+02 8.556275e+03
1.231035e+02 8.265685e+03
1.246388e+02 7.985522e+03
1.261933e+02 7.715221e+03
1.277672e+02 7.454807e+03
1.293607e+02 7.204205e+03
1.309741e+02 6.962179e+03
1.326076e+02 6.725617e+03
1.342615e+02 6.496629e+03
1.359360e+02 6.275439e+03
1.376314e+02 6.061101e+03
1.393479e+02 5.854540e+03
1.410858e+02 5.654858e+03
1.428455e+02 5.459307e+03
1.446270e+02 5.272900e+03
1.464308e+02 5.094431e+03
1.482571e+02 4.922003e+03
1.501062e+02 4.753497e+03
1.519783e+02 4.589440e+03
1.538738e+02 4.431046e+03
1.557929e+02 4.278119e+03
1.577359e+02 4.129944e+03
1.597032e+02 3.985881e+03
1.616950e+02 3.848315e+03
1.637117e+02 3.716858e+03
1.657535e+02 3.589892e+03
1.678208e+02 3.468719e+03
1.699138e+02 3.351679e+03
1.720330e+02 3.238589e+03
1.741786e+02 3.129314e+03
1.763509e+02 3.023727e+03
1.785504e+02 2.919822e+03
1.807772e+02 2.819217e+03
1.830319e+02 2.722080e+03
1.853147e+02 2.628292e+03
1.876259e+02 2.536313e+03
1.899660e+02 2.447240e+03
1.923352e+02 2.362178e+03
1.947340e+02 2.280465e+03
1.971628e+02 2.201579e+03
1.996218e+02 2.125422e+03
2.021114e+02 2.051899e+03
2.046322e+02 1.980920e+03
2.071843e+02 1.912397e+03
2.097683e+02 1.846244e+03
2.123846e+02 1.782398e+03
2.150334e+02 1.721097e+03
2.177153e+02 1.662048e+03
2.204307e+02 1.605404e+03
2.231799e+02 1.550691e+03
2.259634e+02 1.497842e+03
2.287816e+02 1.446794e+03
2.316349e+02 1.397339e+03
2.345239e+02 1.349055e+03
2.374489e+02 1.302480e+03
2.404103e+02 1.257514e+03
2.434087e+02 1.214290e+03
2.464445e+02 1.172810e+03
2.495182e+02 1.132746e+03
2.526302e+02 1.094052e+03
2.557810e+02 1.056679e+03
2.589711e+02 1.020466e+03
2.622009e+02 9.854066e+02
2.654711e+02 9.515519e+02
2.687821e+02 9.188604e+02
2.721343e+02 8.877525e+02
2.755284e+02 8.577226e+02
2.789647e+02 8.285926e+02
2.824440e+02 8.005502e+02
2.859666e+02 7.735377e+02
2.895332e+02 7.474237e+02
2.931443e+02 7.221167e+02
2.968003e+02 6.975596e+02
3.005020e+02 6.738376e+02
3.042499e+02 6.508506e+02
3.080445e+02 6.284029e+02
3.118864e+02 6.064403e+02
3.157763e+02 5.854593e+02
3.197146e+02 5.653692e+02
3.237021e+02 5.459687e+02
3.277393e+02 5.270605e+02
3.318269e+02 5.087974e+02
3.359654e+02 4.912774e+02
3.401556e+02 4.745203e+02
3.443980e+02 4.582898e+02
3.486933e+02 4.425257e+02
3.530422e+02 4.273040e+02
3.574453e+02 4.124980e+02
3.619034e+02 3.981750e+02
3.664171e+02 3.844269e+02
3.709870e+02 3.712190e+02
3.756140e+02 3.584649e+02
3.802986e+02 3.461490e+02
3.850417e+02 3.342562e+02
3.898439e+02 3.227721e+02
3.947060e+02 3.116825e+02
3.996288e+02 3.009739e+02
4.046130e+02 2.906333e+02
4.096593e+02 2.806479e+02
4.147686e+02 2.711749e+02
4.199416e+02 2.619008e+02
4.251791e+02 2.528160e+02
4.304819e+02 2.440636e+02
4.358509e+02 2.357872e+02
4.412868e+02 2.276825e+02
4.467905e+02 2.197321e+02
4.523629e+02 2.121747e+02
4.580047e+02 2.048850e+02
4.637170e+02 1.978498e+02
4.695004e+02 1.911411e+02
4.753560e+02 1.846463e+02
4.812847e+02 1.782857e+02
4.872873e+02 1.721443e+02
4.933647e+02 1.662144e+02
4.995179e+02 1.604888e+02
5.057479e+02 1.549653e+02
5.120556e+02 1.496729e+02
5.184420e+02 1.445613e+02
5.249080e+02 1.395871e+02
5.314546e+02 1.347580e+02
5.380829e+02 1.301687e+02
5.447939e+02 1.257154e+02
5.515885e+02 1.214479e+02
5.584679e+02 1.172908e+02
5.654331e+02 1.132576e+02
5.724852e+02 1.093631e+02
5.796252e+02 1.056293e+02
5.868543e+02 1.020408e+02
5.941736e+02 9.864748e+01
6.015841e+02 9.528468e+01
6.090870e+02 9.202511e+01
6.166836e+02 8.887707e+01
6.243748e+02 8.583925e+01
6.321620e+02 8.290770e+01
6.400463e+02 8.007628e+01
6.480290e+02 7.734653e+01
6.561112e+02 7.472728e+01
6.642942e+02 7.219673e+01
