# Energy(MeV) Fluence_Spherical_Median(cm^-2*MeV^-1)
5.000000e-02 6.742061e+12
5.062360e-02 6.577162e+12
5.125498e-02 6.416289e+12
5.189423e-02 6.259343e+12
5.254145e-02 6.106229e+12
5.319675e-02 5.956853e+12
5.386022e-02 5.811125e+12
5.453196e-02 5.668955e+12
5.521208e-02 5.530256e+12
5.590069e-02 5.394944e+12
5.659788e-02 5.262936e+12
5.730377e-02 5.134151e+12
5.801846e-02 5.008512e+12
5.874207e-02 4.885940e+12
5.947470e-02 4.766362e+12
6.021646e-02 4.649704e+12
6.096748e-02 4.535895e+12
6.172787e-02 4.426030e+12
6.249774e-02 4.319197e+12
6.327721e-02 4.214933e+12
6.406640e-02 4.113178e+12
6.486544e-02 4.013870e+12
6.567444e-02 3.916951e+12
6.649353e-02 3.822364e+12
6.732283e-02 3.730052e+12
6.816248e-02 3.639961e+12
6.901261e-02 3.552038e+12
6.987333e-02 3.466230e+12
7.074479e-02 3.382487e+12
7.162712e-02 3.300759e+12
7.252045e-02 3.220998e+12
7.342492e-02 3.143156e+12
7.434068e-02 3.067188e+12
7.526786e-02 2.993049e+12
7.620660e-02 2.920693e+12
7.715704e-02 2.850080e+12
7.811934e-02 2.780765e+12
7.909365e-02 2.712452e+12
8.008010e-02 2.645811e+12
8.107886e-02 2.580801e+12
8.209008e-02 2.517382e+12
8.311390e-02 2.455515e+12
8.415050e-02 2.395163e+12
8.520002e-02 2.336289e+12
8.626263e-02 2.278468e+12
8.733850e-02 2.221565e+12
8.842779e-02 2.165359e+12
8.953066e-02 2.110572e+12
9.064728e-02 2.057167e+12
9.177783e-02 2.005110e+12
9.292249e-02 1.954367e+12
9.408141e-02 1.904906e+12
9.525480e-02 1.856731e+12
9.644281e-02 1.810932e+12
9.764565e-02 1.766259e+12
9.886348e-02 1.722685e+12
1.000965e-01 1.680181e+12
1.013449e-01 1.638722e+12
1.026089e-01 1.598282e+12
1.038886e-01 1.558836e+12
1.051843e-01 1.520360e+12
1.064962e-01 1.482830e+12
1.078244e-01 1.446223e+12
1.091692e-01 1.410516e+12
1.105307e-01 1.376480e+12
1.119093e-01 1.343395e+12
1.133050e-01 1.311101e+12
1.147181e-01 1.279578e+12
1.161489e-01 1.248809e+12
1.175975e-01 1.218775e+12
1.190642e-01 1.189459e+12
1.205492e-01 1.160843e+12
1.220526e-01 1.132912e+12
1.235749e-01 1.105649e+12
1.251161e-01 1.079038e+12
1.266765e-01 1.053365e+12
1.282565e-01 1.028622e+12
1.298561e-01 1.004448e+12
1.314756e-01 9.808297e+11
1.331154e-01 9.577553e+11
1.347756e-01 9.352120e+11
1.364565e-01 9.131878e+11
1.381584e-01 8.916709e+11
1.398815e-01 8.706497e+11
1.416261e-01 8.501129e+11
1.433925e-01 8.300495e+11
1.451809e-01 8.104486e+11
1.469916e-01 7.912999e+11
1.488248e-01 7.724285e+11
1.506810e-01 7.525734e+11
1.525603e-01 7.329962e+11
1.544630e-01 7.141934e+11
1.563895e-01 6.972886e+11
1.583400e-01 6.807772e+11
1.603148e-01 6.645844e+11
1.623142e-01 6.486571e+11
1.643386e-01 6.331046e+11
1.663882e-01 6.179183e+11
1.684634e-01 6.030895e+11
1.705645e-01 5.886099e+11
1.726918e-01 5.744714e+11
1.748456e-01 5.606660e+11
1.770262e-01 5.471859e+11
1.792341e-01 5.340236e+11
1.814695e-01 5.211716e+11
1.837328e-01 5.086227e+11
1.860243e-01 4.963698e+11
1.883444e-01 4.844061e+11
1.906934e-01 4.727246e+11
1.930718e-01 4.611702e+11
1.954798e-01 4.498729e+11
1.979178e-01 4.388494e+11
2.003862e-01 4.280930e+11
2.028854e-01 4.175975e+11
2.054158e-01 4.073563e+11
2.079777e-01 3.973635e+11
2.105716e-01 3.876131e+11
2.131979e-01 3.782000e+11
2.158569e-01 3.691603e+11
2.185491e-01 3.599689e+11
2.212748e-01 3.510041e+11
2.240345e-01 3.422964e+11
2.268287e-01 3.335626e+11
2.296577e-01 3.250398e+11
2.325220e-01 3.167329e+11
2.354220e-01 3.086362e+11
2.383582e-01 3.007446e+11
2.413310e-01 2.930529e+11
2.443409e-01 2.855560e+11
2.473883e-01 2.782489e+11
2.504737e-01 2.711270e+11
2.535976e-01 2.641856e+11
2.567605e-01 2.574609e+11
2.599628e-01 2.511043e+11
2.632050e-01 2.446066e+11
2.664877e-01 2.380542e+11
2.698114e-01 2.316763e+11
2.731764e-01 2.256334e+11
2.765835e-01 2.200749e+11
2.800330e-01 2.146506e+11
2.835256e-01 2.091609e+11
2.870617e-01 2.037433e+11
2.906420e-01 1.984651e+11
2.942668e-01 1.933225e+11
2.979369e-01 1.883123e+11
3.016528e-01 1.835965e+11
3.054150e-01 1.791163e+11
3.092241e-01 1.747436e+11
3.130808e-01 1.704757e+11
3.169855e-01 1.663102e+11
3.209390e-01 1.622447e+11
3.249417e-01 1.582767e+11
3.289944e-01 1.544040e+11
3.330976e-01 1.506242e+11
3.372520e-01 1.468684e+11
3.414582e-01 1.430051e+11
3.457168e-01 1.392428e+11
3.500286e-01 1.358379e+11
3.543942e-01 1.325264e+11
3.588142e-01 1.291651e+11
3.632893e-01 1.258879e+11
3.678202e-01 1.226929e+11
3.724077e-01 1.195780e+11
3.770524e-01 1.164984e+11
3.817549e-01 1.134101e+11
3.865162e-01 1.104029e+11
3.913368e-01 1.075254e+11
3.962176e-01 1.047336e+11
4.011592e-01 1.020109e+11
4.061624e-01 9.939959e+10
4.112281e-01 9.689763e+10
4.163569e-01 9.423885e+10
4.215497e-01 9.183239e+10
4.268073e-01 8.934381e+10
4.321304e-01 8.689295e+10
4.375199e-01 8.458440e+10
4.429767e-01 8.233641e+10
4.485015e-01 8.006627e+10
4.540952e-01 7.787340e+10
4.597587e-01 7.588168e+10
4.654928e-01 7.392438e+10
4.712984e-01 7.202259e+10
4.771764e-01 7.016877e+10
4.831277e-01 6.833789e+10
4.891533e-01 6.635157e+10
4.952540e-01 6.440466e+10
5.014308e-01 6.275678e+10
5.076847e-01 6.116166e+10
5.140165e-01 5.957038e+10
5.204273e-01 5.799621e+10
5.269181e-01 5.647365e+10
5.334898e-01 5.503624e+10
5.401435e-01 5.360122e+10
5.468801e-01 5.218666e+10
5.537008e-01 5.075144e+10
5.606066e-01 4.935331e+10
5.675984e-01 4.803069e+10
5.746775e-01 4.678916e+10
5.818449e-01 4.557893e+10
5.891017e-01 4.439028e+10
5.964489e-01 4.317267e+10
6.038878e-01 4.198536e+10
6.114195e-01 4.077255e+10
6.190451e-01 3.961994e+10
6.267658e-01 3.853315e+10
6.345829e-01 3.756181e+10
6.424974e-01 3.655449e+10
6.505106e-01 3.552559e+10
6.586238e-01 3.454117e+10
6.668381e-01 3.359902e+10
6.751549e-01 3.265195e+10
6.835754e-01 3.178999e+10
6.921010e-01 3.091093e+10
7.007328e-01 3.011667e+10
7.094724e-01 2.930686e+10
7.183209e-01 2.854290e+10
7.272798e-01 2.779293e+10
7.363504e-01 2.709135e+10
7.455342e-01 2.640634e+10
7.548325e-01 2.567675e+10
7.642467e-01 2.493609e+10
7.737784e-01 2.425570e+10
7.834289e-01 2.359851e+10
7.931999e-01 2.297625e+10
8.030926e-01 2.236073e+10
8.131088e-01 2.174054e+10
8.232499e-01 2.109557e+10
8.335175e-01 2.051103e+10
8.439131e-01 1.995573e+10
8.544383e-01 1.944121e+10
8.650949e-01 1.892013e+10
8.758843e-01 1.840520e+10
8.868084e-01 1.790262e+10
8.978686e-01 1.742411e+10
9.090668e-01 1.691818e+10
9.204047e-01 1.643965e+10
9.318840e-01 1.600547e+10
9.435064e-01 1.560240e+10
9.552738e-01 1.520989e+10
9.671880e-01 1.481855e+10
9.792507e-01 1.444349e+10
9.914639e-01 1.404042e+10
1.003829e+00 1.368517e+10
1.016349e+00 1.337270e+10
1.029025e+00 1.310783e+10
1.041859e+00 1.274855e+10
1.054853e+00 1.250324e+10
1.068009e+00 1.219166e+10
1.081329e+00 1.181848e+10
1.094816e+00 1.151480e+10
1.108470e+00 1.127914e+10
1.122295e+00 1.102720e+10
1.136292e+00 1.078216e+10
1.150464e+00 1.050649e+10
1.164813e+00 1.023201e+10
1.179340e+00 9.976374e+09
1.194049e+00 9.733389e+09
1.208941e+00 9.481907e+09
1.224019e+00 9.206141e+09
1.239285e+00 8.980790e+09
1.254741e+00 8.760863e+09
1.270391e+00 8.558468e+09
1.286235e+00 8.353382e+09
1.302277e+00 8.113859e+09
1.318519e+00 7.891080e+09
1.334963e+00 7.673086e+09
1.351613e+00 7.464894e+09
1.368470e+00 7.249347e+09
1.385538e+00 7.045400e+09
1.402818e+00 6.856075e+09
1.420314e+00 6.665316e+09
1.438028e+00 6.466406e+09
1.455963e+00 6.301075e+09
1.474122e+00 6.105495e+09
1.492507e+00 5.929369e+09
1.511122e+00 5.770383e+09
1.529969e+00 5.612148e+09
1.549050e+00 5.451477e+09
1.568370e+00 5.308791e+09
1.587931e+00 5.147654e+09
1.607735e+00 5.010763e+09
1.627787e+00 4.875215e+09
1.648089e+00 4.749847e+09
1.668644e+00 4.612266e+09
1.689455e+00 4.473790e+09
1.710526e+00 4.352043e+09
1.731859e+00 4.222372e+09
1.753459e+00 4.096100e+09
1.775328e+00 3.978242e+09
1.797470e+00 3.870934e+09
1.819888e+00 3.762448e+09
1.842586e+00 3.651507e+09
1.865567e+00 3.538294e+09
1.888834e+00 3.428967e+09
1.912391e+00 3.328973e+09
1.936243e+00 3.233792e+09
1.960392e+00 3.136548e+09
1.984842e+00 3.041982e+09
2.009596e+00 2.951118e+09
2.034660e+00 2.864004e+09
2.060036e+00 2.776711e+09
2.085729e+00 2.696404e+09
2.111742e+00 2.616541e+09
2.138080e+00 2.539124e+09
2.164746e+00 2.460100e+09
2.191745e+00 2.388619e+09
2.219080e+00 2.318944e+09
2.246756e+00 2.243634e+09
2.274778e+00 2.174897e+09
2.303149e+00 2.109484e+09
2.331874e+00 2.044378e+09
2.360957e+00 1.980588e+09
2.390403e+00 1.918132e+09
2.420216e+00 1.860414e+09
2.450401e+00 1.801777e+09
2.480962e+00 1.746754e+09
2.511905e+00 1.695597e+09
2.543233e+00 1.647466e+09
2.574952e+00 1.595474e+09
2.607067e+00 1.544990e+09
2.639582e+00 1.497215e+09
2.672503e+00 1.449918e+09
2.705835e+00 1.403651e+09
2.739582e+00 1.359915e+09
2.773750e+00 1.316867e+09
2.808344e+00 1.273481e+09
2.843370e+00 1.230860e+09
2.878832e+00 1.190391e+09
2.914737e+00 1.153157e+09
2.951089e+00 1.115639e+09
2.987895e+00 1.079411e+09
3.025160e+00 1.044558e+09
3.062890e+00 1.010645e+09
3.101090e+00 9.767333e+08
3.139767e+00 9.444614e+08
3.178926e+00 9.130707e+08
3.218574e+00 8.833636e+08
3.258716e+00 8.539356e+08
3.299358e+00 8.252750e+08
3.340508e+00 7.990828e+08
3.382171e+00 7.729466e+08
3.424353e+00 7.471311e+08
3.467062e+00 7.235525e+08
3.510303e+00 7.001454e+08
3.554083e+00 6.769332e+08
3.598410e+00 6.543898e+08
3.643289e+00 6.322245e+08
3.688728e+00 6.113161e+08
3.734734e+00 5.914567e+08
3.781313e+00 5.722255e+08
3.828474e+00 5.528813e+08
3.876223e+00 5.343392e+08
3.924567e+00 5.170568e+08
3.973514e+00 4.994820e+08
4.023072e+00 4.827729e+08
4.073247e+00 4.666995e+08
4.124049e+00 4.511412e+08
4.175484e+00 4.368011e+08
4.227560e+00 4.220962e+08
4.280287e+00 4.077735e+08
4.333670e+00 3.939187e+08
4.387720e+00 3.804988e+08
4.442443e+00 3.675755e+08
4.497849e+00 3.550913e+08
4.553947e+00 3.430312e+08
4.610743e+00 3.313807e+08
4.668248e+00 3.202401e+08
4.726471e+00 3.095009e+08
4.785419e+00 2.990621e+08
4.845103e+00 2.889755e+08
4.905531e+00 2.792291e+08
4.966713e+00 2.698115e+08
5.028657e+00 2.606402e+08
5.091375e+00 2.516291e+08
5.154874e+00 2.429296e+08
5.219166e+00 2.346845e+08
5.284259e+00 2.267347e+08
5.350165e+00 2.190149e+08
5.416892e+00 2.115587e+08
5.484451e+00 2.043446e+08
5.552853e+00 1.973662e+08
5.622108e+00 1.906249e+08
5.692227e+00 1.841137e+08
5.763220e+00 1.777843e+08
5.835099e+00 1.716599e+08
5.907875e+00 1.657465e+08
5.981558e+00 1.601123e+08
6.056159e+00 1.547061e+08
6.131692e+00 1.494604e+08
6.208166e+00 1.443577e+08
6.285594e+00 1.394832e+08
6.363988e+00 1.347733e+08
6.443360e+00 1.302224e+08
6.523721e+00 1.258253e+08
6.605085e+00 1.215151e+08
6.687464e+00 1.173461e+08
6.770870e+00 1.133201e+08
6.855316e+00 1.094323e+08
6.940815e+00 1.056778e+08
7.027381e+00 1.020522e+08
7.115026e+00 9.855092e+07
7.203765e+00 9.516979e+07
7.293610e+00 9.190467e+07
7.384576e+00 8.875157e+07
7.476676e+00 8.571020e+07
7.569925e+00 8.278262e+07
7.664337e+00 7.995504e+07
7.759927e+00 7.722403e+07
7.856709e+00 7.458631e+07
7.954697e+00 7.204162e+07
8.053908e+00 6.960105e+07
8.154356e+00 6.726158e+07
8.256057e+00 6.500076e+07
8.359027e+00 6.281595e+07
8.463281e+00 6.070460e+07
8.568834e+00 5.864026e+07
8.675705e+00 5.664600e+07
8.783908e+00 5.471957e+07
8.893461e+00 5.285865e+07
9.004380e+00 5.106102e+07
9.116683e+00 4.932452e+07
9.230386e+00 4.764953e+07
9.345507e+00 4.603855e+07
9.462064e+00 4.447426e+07
9.580075e+00 4.295231e+07
9.699557e+00 4.148872e+07
9.820530e+00 4.007747e+07
9.943012e+00 3.869631e+07
1.006702e+01 3.736276e+07
1.019258e+01 3.607518e+07
1.031970e+01 3.483265e+07
1.044841e+01 3.365272e+07
1.057872e+01 3.251276e+07
1.071066e+01 3.142576e+07
1.084424e+01 3.038428e+07
1.097949e+01 2.934841e+07
1.111642e+01 2.834250e+07
1.125507e+01 2.736409e+07
1.139544e+01 2.641823e+07
1.153756e+01 2.550741e+07
1.168146e+01 2.462344e+07
1.182715e+01 2.377231e+07
1.197466e+01 2.295059e+07
1.212401e+01 2.215683e+07
1.227522e+01 2.138179e+07
1.242831e+01 2.063489e+07
1.258332e+01 1.993377e+07
1.274026e+01 1.925748e+07
1.289916e+01 1.859799e+07
1.306003e+01 1.796007e+07
1.322292e+01 1.734404e+07
1.338783e+01 1.674914e+07
1.355481e+01 1.617465e+07
1.372386e+01 1.562272e+07
1.389503e+01 1.509361e+07
1.406833e+01 1.458242e+07
1.424379e+01 1.408854e+07
1.442143e+01 1.361139e+07
1.460130e+01 1.315040e+07
1.478340e+01 1.269763e+07
1.496778e+01 1.226167e+07
1.515446e+01 1.184316e+07
1.534347e+01 1.143893e+07
1.553483e+01 1.104976e+07
1.572858e+01 1.067569e+07
1.592475e+01 1.031139e+07
1.612336e+01 9.958041e+06
1.632445e+01 9.620534e+06
1.652805e+01 9.294469e+06
1.673419e+01 8.977196e+06
1.694290e+01 8.667727e+06
1.715421e+01 8.368926e+06
1.736815e+01 8.084202e+06
1.758477e+01 7.809461e+06
1.780409e+01 7.539471e+06
1.802614e+01 7.276862e+06
1.825096e+01 7.024913e+06
1.847859e+01 6.783803e+06
1.870905e+01 6.550968e+06
1.894239e+01 6.326125e+06
1.917864e+01 6.111194e+06
1.941784e+01 5.901048e+06
1.966001e+01 5.698380e+06
1.990521e+01 5.503742e+06
2.015347e+01 5.315752e+06
2.040483e+01 5.135949e+06
2.065931e+01 4.960845e+06
2.091698e+01 4.789960e+06
2.117785e+01 4.625848e+06
2.144198e+01 4.467844e+06
2.170941e+01 4.315237e+06
2.198017e+01 4.166110e+06
2.225430e+01 4.021982e+06
2.253186e+01 3.882841e+06
2.281288e+01 3.747977e+06
2.309740e+01 3.616606e+06
2.338547e+01 3.492011e+06
2.367713e+01 3.374835e+06
2.397243e+01 3.261603e+06
2.427142e+01 3.152170e+06
2.457413e+01 3.046409e+06
2.488062e+01 2.942950e+06
2.519093e+01 2.842975e+06
2.550511e+01 2.746573e+06
2.582321e+01 2.652759e+06
2.614528e+01 2.562149e+06
2.647136e+01 2.474635e+06
2.680151e+01 2.390109e+06
2.713578e+01 2.308471e+06
2.747421e+01 2.229621e+06
2.781687e+01 2.153464e+06
2.816380e+01 2.079909e+06
2.851506e+01 2.008866e+06
2.887070e+01 1.940429e+06
2.923078e+01 1.875253e+06
2.959534e+01 1.812266e+06
2.996446e+01 1.751396e+06
3.033817e+01 1.692570e+06
3.071655e+01 1.634405e+06
3.109965e+01 1.577841e+06
3.148752e+01 1.523236e+06
3.188023e+01 1.470887e+06
3.227784e+01 1.420924e+06
3.268041e+01 1.372962e+06
3.308800e+01 1.327296e+06
3.350067e+01 1.282401e+06
3.391849e+01 1.238308e+06
3.434152e+01 1.196230e+06
3.476983e+01 1.155805e+06
3.520348e+01 1.116303e+06
3.564254e+01 1.077818e+06
3.608707e+01 1.040661e+06
3.653715e+01 1.005149e+06
3.699284e+01 9.710669e+05
3.745421e+01 9.381844e+05
3.792134e+01 9.064158e+05
3.839430e+01 8.757235e+05
3.887315e+01 8.460708e+05
3.935798e+01 8.170434e+05
3.984885e+01 7.889970e+05
4.034584e+01 7.616955e+05
4.084904e+01 7.353236e+05
4.135850e+01 7.098976e+05
4.187433e+01 6.858608e+05
4.239658e+01 6.626379e+05
4.292535e+01 6.400109e+05
4.346072e+01 6.181116e+05
4.400276e+01 5.969616e+05
4.455156e+01 5.765353e+05
4.510721e+01 5.568079e+05
4.566978e+01 5.377556e+05
4.623938e+01 5.193552e+05
4.681607e+01 5.015511e+05
4.739996e+01 4.842578e+05
4.799113e+01 4.675609e+05
4.858968e+01 4.514397e+05
4.919569e+01 4.358745e+05
4.980926e+01 4.208459e+05
5.043048e+01 4.062115e+05
5.105945e+01 3.921498e+05
5.169626e+01 3.789611e+05
5.234101e+01 3.661165e+05
5.299381e+01 3.537072e+05
5.365475e+01 3.417186e+05
5.432393e+01 3.301364e+05
5.500146e+01 3.186743e+05
5.568743e+01 3.076085e+05
5.638197e+01 2.971930e+05
5.708516e+01 2.871463e+05
5.779713e+01 2.774392e+05
5.851797e+01 2.679880e+05
5.924781e+01 2.587653e+05
5.998675e+01 2.499043e+05
6.073490e+01 2.413445e+05
6.149239e+01 2.330493e+05
6.225932e+01 2.250274e+05
6.303582e+01 2.172788e+05
6.382200e+01 2.097934e+05
6.461798e+01 2.026112e+05
6.542390e+01 1.957393e+05
6.623986e+01 1.891006e+05
6.706601e+01 1.826800e+05
6.790245e+01 1.764808e+05
6.874933e+01 1.704742e+05
6.960677e+01 1.647349e+05
7.047491e+01 1.591889e+05
7.135387e+01 1.538297e+05
7.224380e+01 1.486171e+05
7.314482e+01 1.435208e+05
7.405708e+01 1.385993e+05
7.498072e+01 1.338466e+05
7.591588e+01 1.292568e+05
7.686270e+01 1.248158e+05
7.782133e+01 1.205235e+05
7.879192e+01 1.163555e+05
7.977461e+01 1.123182e+05
8.076956e+01 1.084312e+05
8.177691e+01 1.047069e+05
8.279683e+01 1.011161e+05
8.382948e+01 9.764837e+04
8.487500e+01 9.429961e+04
8.593356e+01 9.106568e+04
8.700532e+01 8.791043e+04
8.809045e+01 8.484735e+04
8.918911e+01 8.194389e+04
9.030148e+01 7.913236e+04
9.142771e+01 7.640708e+04
9.256800e+01 7.377566e+04
9.372251e+01 7.123487e+04
9.489141e+01 6.878158e+04
9.607490e+01 6.641278e+04
9.727314e+01 6.412557e+04
9.848633e+01 6.192659e+04
9.971465e+01 5.983195e+04
1.009583e+02 5.778116e+04
1.022174e+02 5.579613e+04
1.034923e+02 5.387929e+04
1.047831e+02 5.202831e+04
1.060899e+02 5.023875e+04
1.074131e+02 4.850667e+04
1.087527e+02 4.683431e+04
1.101091e+02 4.521961e+04
1.114824e+02 4.366058e+04
1.128728e+02 4.215530e+04
1.142805e+02 4.070192e+04
1.157058e+02 3.929865e+04
1.171489e+02 3.795246e+04
1.186100e+02 3.665399e+04
1.200893e+02 3.542695e+04
1.215870e+02 3.422510e+04
1.231035e+02 3.306274e+04
1.246388e+02 3.194209e+04
1.261933e+02 3.086088e+04
1.277672e+02 2.981923e+04
1.293607e+02 2.881682e+04
1.309741e+02 2.784872e+04
1.326076e+02 2.690247e+04
1.342615e+02 2.598652e+04
1.359360e+02 2.510176e+04
1.376314e+02 2.424440e+04
1.393479e+02 2.341816e+04
1.410858e+02 2.261943e+04
1.428455e+02 2.183723e+04
1.446270e+02 2.109160e+04
1.464308e+02 2.037772e+04
1.482571e+02 1.968801e+04
1.501062e+02 1.901399e+04
1.519783e+02 1.835776e+04
1.538738e+02 1.772418e+04
1.557929e+02 1.711248e+04
1.577359e+02 1.651978e+04
1.597032e+02 1.594352e+04
1.616950e+02 1.539326e+04
1.637117e+02 1.486743e+04
1.657535e+02 1.435957e+04
1.678208e+02 1.387488e+04
1.699138e+02 1.340672e+04
1.720330e+02 1.295436e+04
1.741786e+02 1.251726e+04
1.763509e+02 1.209491e+04
1.785504e+02 1.167929e+04
1.807772e+02 1.127687e+04
1.830319e+02 1.088832e+04
1.853147e+02 1.051317e+04
1.876259e+02 1.014525e+04
1.899660e+02 9.788958e+03
1.923352e+02 9.448712e+03
1.947340e+02 9.121860e+03
1.971628e+02 8.806315e+03
1.996218e+02 8.501686e+03
2.021114e+02 8.207596e+03
2.046322e+02 7.923680e+03
2.071843e+02 7.649586e+03
2.097683e+02 7.384974e+03
2.123846e+02 7.129591e+03
2.150334e+02 6.884387e+03
2.177153e+02 6.648192e+03
2.204307e+02 6.421616e+03
2.231799e+02 6.202762e+03
2.259634e+02 5.991367e+03
2.287816e+02 5.787177e+03
2.316349e+02 5.589357e+03
2.345239e+02 5.396219e+03
2.374489e+02 5.209920e+03
2.404103e+02 5.030055e+03
2.434087e+02 4.857160e+03
2.464445e+02 4.691239e+03
2.495182e+02 4.530986e+03
2.526302e+02 4.376206e+03
2.557810e+02 4.226715e+03
2.589711e+02 4.081864e+03
2.622009e+02 3.941627e+03
2.654711e+02 3.806208e+03
2.687821e+02 3.675442e+03
2.721343e+02 3.551010e+03
2.755284e+02 3.430890e+03
2.789647e+02 3.314370e+03
2.824440e+02 3.202201e+03
2.859666e+02 3.094151e+03
2.895332e+02 2.989695e+03
2.931443e+02 2.888467e+03
2.968003e+02 2.790238e+03
3.005020e+02 2.695351e+03
3.042499e+02 2.603402e+03
3.080445e+02 2.513612e+03
3.118864e+02 2.425761e+03
3.157763e+02 2.341837e+03
3.197146e+02 2.261477e+03
3.237021e+02 2.183875e+03
3.277393e+02 2.108242e+03
3.318269e+02 2.035190e+03
3.359654e+02 1.965110e+03
3.401556e+02 1.898081e+03
3.443980e+02 1.833159e+03
3.486933e+02 1.770103e+03
3.530422e+02 1.709216e+03
3.574453e+02 1.649992e+03
3.619034e+02 1.592700e+03
3.664171e+02 1.537707e+03
3.709870e+02 1.484876e+03
3.756140e+02 1.433859e+03
3.802986e+02 1.384596e+03
3.850417e+02 1.337025e+03
3.898439e+02 1.291088e+03
3.947060e+02 1.246730e+03
3.996288e+02 1.203896e+03
4.046130e+02 1.162533e+03
4.096593e+02 1.122592e+03
4.147686e+02 1.084700e+03
4.199416e+02 1.047603e+03
4.251791e+02 1.011264e+03
4.304819e+02 9.762543e+02
4.358509e+02 9.431488e+02
4.412868e+02 9.107300e+02
4.467905e+02 8.789284e+02
4.523629e+02 8.486988e+02
4.580047e+02 8.195398e+02
4.637170e+02 7.913994e+02
4.695004e+02 7.645646e+02
4.753560e+02 7.385850e+02
4.812847e+02 7.131428e+02
4.872873e+02 6.885770e+02
4.933647e+02 6.648575e+02
4.995179e+02 6.419551e+02
5.057479e+02 6.198612e+02
5.120556e+02 5.986918e+02
5.184420e+02 5.782454e+02
5.249080e+02 5.583483e+02
5.314546e+02 5.390321e+02
5.380829e+02 5.206750e+02
5.447939e+02 5.028615e+02
5.515885e+02 4.857917e+02
5.584679e+02 4.691631e+02
5.654331e+02 4.530304e+02
5.724852e+02 4.374525e+02
5.796252e+02 4.225172e+02
5.868543e+02 4.081632e+02
5.941736e+02 3.945899e+02
6.015841e+02 3.811387e+02
6.090870e+02 3.681004e+02
6.166836e+02 3.555083e+02
6.243748e+02 3.433570e+02
6.321620e+02 3.316308e+02
6.400463e+02 3.203051e+02
6.480290e+02 3.093861e+02
6.561112e+02 2.989091e+02
6.642942e+02 2.887869e+02
