Energy(MeV)   SphericalFluence_Median(cm^-2 MeV^-1)
5.000000e-02 8.992151e+11
5.168383e-02 8.608886e+11
5.342437e-02 8.242713e+11
5.522353e-02 7.885958e+11
5.708327e-02 7.543012e+11
5.900565e-02 7.218180e+11
6.099276e-02 6.919178e+11
6.304680e-02 6.620005e+11
6.517000e-02 6.340044e+11
6.736471e-02 6.072167e+11
6.963333e-02 5.808471e+11
7.197835e-02 5.562287e+11
7.440234e-02 5.325974e+11
7.690796e-02 5.097653e+11
7.949797e-02 4.880915e+11
8.217519e-02 4.670763e+11
8.494258e-02 4.468381e+11
8.780317e-02 4.280355e+11
9.076008e-02 4.095732e+11
9.381658e-02 3.919365e+11
9.697601e-02 3.749904e+11
1.002418e-01 3.592969e+11
1.036177e-01 3.443617e+11
1.071072e-01 3.297148e+11
1.107142e-01 3.153592e+11
1.144426e-01 3.016809e+11
1.182967e-01 2.890200e+11
1.222805e-01 2.766357e+11
1.263985e-01 2.648687e+11
1.306552e-01 2.536406e+11
1.350553e-01 2.425971e+11
1.396035e-01 2.324120e+11
1.443048e-01 2.225185e+11
1.491646e-01 2.130797e+11
1.541879e-01 2.040915e+11
1.593805e-01 1.955389e+11
1.647479e-01 1.872578e+11
1.702960e-01 1.791241e+11
1.760310e-01 1.714103e+11
1.819592e-01 1.641329e+11
1.880869e-01 1.571788e+11
1.944211e-01 1.505263e+11
2.009685e-01 1.441849e+11
2.077365e-01 1.378895e+11
2.147324e-01 1.318434e+11
2.219638e-01 1.261968e+11
2.294388e-01 1.208320e+11
2.371656e-01 1.155538e+11
2.451525e-01 1.106439e+11
2.534084e-01 1.059405e+11
2.619424e-01 1.013820e+11
2.707637e-01 9.700069e+10
2.798822e-01 9.289217e+10
2.893077e-01 8.886125e+10
2.990506e-01 8.498797e+10
3.091216e-01 8.115691e+10
3.195318e-01 7.762333e+10
3.302926e-01 7.437003e+10
3.414157e-01 7.113161e+10
3.529135e-01 6.813710e+10
3.647984e-01 6.526318e+10
3.770836e-01 6.237885e+10
3.897825e-01 5.969828e+10
4.029091e-01 5.716134e+10
4.164778e-01 5.471186e+10
4.305033e-01 5.229593e+10
4.450013e-01 5.006737e+10
4.599874e-01 4.788308e+10
4.754783e-01 4.582742e+10
4.914908e-01 4.383421e+10
5.080426e-01 4.195341e+10
5.251518e-01 4.013406e+10
5.428371e-01 3.835990e+10
5.611181e-01 3.662350e+10
5.800147e-01 3.500911e+10
5.995476e-01 3.347666e+10
6.197384e-01 3.200231e+10
6.406091e-01 3.060752e+10
6.621827e-01 2.928065e+10
6.844828e-01 2.800661e+10
7.075339e-01 2.675753e+10
7.313613e-01 2.559747e+10
7.559911e-01 2.447396e+10
7.814504e-01 2.341421e+10
8.077670e-01 2.237804e+10
8.349699e-01 2.138864e+10
8.630889e-01 2.044241e+10
8.921549e-01 1.953406e+10
9.221997e-01 1.868214e+10
9.532563e-01 1.784144e+10
9.853588e-01 1.703734e+10
1.018542e+00 1.626700e+10
1.052844e+00 1.552588e+10
1.088300e+00 1.482034e+10
1.124950e+00 1.414801e+10
1.162835e+00 1.351902e+10
1.201995e+00 1.291173e+10
1.242474e+00 1.232283e+10
1.284317e+00 1.177358e+10
1.327568e+00 1.124766e+10
1.372276e+00 1.073090e+10
1.418490e+00 1.024882e+10
1.466260e+00 9.777279e+09
1.515639e+00 9.329901e+09
1.566680e+00 8.897056e+09
1.619441e+00 8.494228e+09
1.673978e+00 8.105568e+09
1.730352e+00 7.728146e+09
1.788625e+00 7.371565e+09
1.848860e+00 7.028230e+09
1.911123e+00 6.702564e+09
1.975484e+00 6.389677e+09
2.042011e+00 6.087213e+09
2.110780e+00 5.803500e+09
2.181864e+00 5.531307e+09
2.255341e+00 5.270148e+09
2.331294e+00 5.018418e+09
2.409804e+00 4.775049e+09
2.490958e+00 4.546147e+09
2.574845e+00 4.324439e+09
2.661558e+00 4.119388e+09
2.751190e+00 3.920980e+09
2.843841e+00 3.731353e+09
2.939612e+00 3.546110e+09
3.038609e+00 3.369607e+09
3.140939e+00 3.203621e+09
3.246715e+00 3.045124e+09
3.356054e+00 2.894964e+09
3.469074e+00 2.750237e+09
3.585901e+00 2.611310e+09
3.706663e+00 2.478963e+09
3.831491e+00 2.352991e+09
3.960522e+00 2.233874e+09
4.093900e+00 2.119454e+09
4.231769e+00 2.011091e+09
4.374280e+00 1.904700e+09
4.521592e+00 1.805819e+09
4.673864e+00 1.712237e+09
4.831264e+00 1.621273e+09
4.993965e+00 1.535258e+09
5.162145e+00 1.454148e+09
5.335989e+00 1.376347e+09
5.515687e+00 1.300085e+09
5.701437e+00 1.228574e+09
5.893443e+00 1.160053e+09
6.091914e+00 1.097295e+09
6.297070e+00 1.035625e+09
6.509134e+00 9.779358e+08
6.728340e+00 9.207892e+08
6.954928e+00 8.666576e+08
7.189147e+00 8.173012e+08
7.431253e+00 7.668689e+08
7.681513e+00 7.214955e+08
7.940201e+00 6.793236e+08
8.207601e+00 6.395208e+08
8.484005e+00 6.006803e+08
8.769719e+00 5.647978e+08
9.065053e+00 5.300490e+08
9.370334e+00 4.982600e+08
9.685896e+00 4.668329e+08
1.001208e+01 4.368181e+08
1.034926e+01 4.098218e+08
1.069779e+01 3.838529e+08
1.105805e+01 3.586295e+08
1.143045e+01 3.350609e+08
1.181539e+01 3.124669e+08
1.221329e+01 2.917271e+08
1.262460e+01 2.724719e+08
1.304975e+01 2.543468e+08
1.348922e+01 2.369879e+08
1.394350e+01 2.207715e+08
1.441307e+01 2.049113e+08
1.489845e+01 1.904923e+08
1.540018e+01 1.769131e+08
1.591881e+01 1.646946e+08
1.645490e+01 1.524199e+08
1.700905e+01 1.413655e+08
1.758185e+01 1.305851e+08
1.817395e+01 1.209483e+08
1.878599e+01 1.119553e+08
1.941864e+01 1.036166e+08
2.007260e+01 9.570404e+07
2.074857e+01 8.827861e+07
2.144732e+01 8.142826e+07
2.216959e+01 7.503488e+07
2.291619e+01 6.895225e+07
2.368793e+01 6.353449e+07
2.448566e+01 5.830701e+07
2.531026e+01 5.360749e+07
2.616262e+01 4.940765e+07
2.704369e+01 4.530473e+07
2.795443e+01 4.159276e+07
2.889585e+01 3.804367e+07
2.986896e+01 3.485281e+07
3.087485e+01 3.207536e+07
3.191461e+01 2.947457e+07
3.298939e+01 2.703228e+07
3.410036e+01 2.480233e+07
3.524875e+01 2.270214e+07
3.643581e+01 2.076382e+07
3.766285e+01 1.905464e+07
3.893121e+01 1.743562e+07
4.024228e+01 1.598123e+07
4.159751e+01 1.463926e+07
4.299837e+01 1.342258e+07
4.444641e+01 1.227866e+07
4.594322e+01 1.119470e+07
4.749044e+01 1.024402e+07
4.908976e+01 9.348762e+06
5.074294e+01 8.537760e+06
5.245179e+01 7.798915e+06
5.421819e+01 7.135613e+06
5.604408e+01 6.535668e+06
5.793146e+01 5.965631e+06
5.988240e+01 5.441002e+06
6.189904e+01 4.974087e+06
6.398359e+01 4.553607e+06
6.613834e+01 4.161316e+06
6.836566e+01 3.802513e+06
7.066799e+01 3.481926e+06
7.304785e+01 3.169064e+06
7.550786e+01 2.898334e+06
7.805072e+01 2.649579e+06
8.067920e+01 2.420104e+06
8.339621e+01 2.208281e+06
8.620472e+01 2.017895e+06
8.910781e+01 1.846803e+06
9.210866e+01 1.685908e+06
9.521057e+01 1.534566e+06
9.841695e+01 1.404897e+06
1.017313e+02 1.281015e+06
1.051573e+02 1.168302e+06
1.086986e+02 1.069480e+06
1.123592e+02 9.767089e+05
1.161431e+02 8.914126e+05
1.200544e+02 8.127595e+05
1.240975e+02 7.423586e+05
1.282767e+02 6.787303e+05
1.325966e+02 6.190001e+05
1.370620e+02 5.644955e+05
1.416778e+02 5.144713e+05
1.464490e+02 4.699082e+05
1.513809e+02 4.286681e+05
1.564789e+02 3.918963e+05
1.617486e+02 3.580689e+05
1.671958e+02 3.265561e+05
1.728264e+02 2.976729e+05
1.786466e+02 2.721781e+05
1.846628e+02 2.485626e+05
1.908817e+02 2.268123e+05
1.973099e+02 2.072508e+05
2.039547e+02 1.895277e+05
2.108232e+02 1.731228e+05
2.179230e+02 1.579183e+05
2.252619e+02 1.441312e+05
2.328480e+02 1.313071e+05
2.406895e+02 1.205547e+05
2.487952e+02 1.100356e+05
2.571738e+02 1.005282e+05
2.658345e+02 9.185379e+04
2.747869e+02 8.391654e+04
2.840408e+02 7.661856e+04
2.936064e+02 6.999887e+04
3.034941e+02 6.393755e+04
3.137148e+02 5.844581e+04
3.242796e+02 5.338419e+04
3.352003e+02 4.878475e+04
3.464887e+02 4.468426e+04
3.581573e+02 4.092084e+04
3.702189e+02 3.740816e+04
3.826866e+02 3.424553e+04
3.955742e+02 3.125333e+04
4.088958e+02 2.856765e+04
4.226661e+02 2.611289e+04
4.369001e+02 2.396353e+04
4.516134e+02 2.185955e+04
4.668222e+02 1.995875e+04
4.825433e+02 1.821804e+04
4.987937e+02 1.660873e+04
5.155914e+02 1.519637e+04
5.329548e+02 1.384024e+04
5.509030e+02 1.264571e+04
5.694556e+02 1.156411e+04
5.886329e+02 1.055208e+04
6.084561e+02 9.641232e+03
6.289469e+02 8.802144e+03
6.501277e+02 8.050853e+03
6.720219e+02 7.336053e+03
6.946533e+02 6.680443e+03
7.180470e+02 6.089137e+03
7.422284e+02 5.540156e+03
7.672242e+02 5.066593e+03
7.930617e+02 4.633715e+03
8.197694e+02 4.230141e+03
8.473765e+02 3.861667e+03
8.759133e+02 3.527143e+03
9.054112e+02 3.232677e+03
9.359024e+02 2.969164e+03
9.674205e+02 2.725435e+03
1.000000e+03 2.487286e+03
