# Energy(MeV) Sferica_Fluence(cm^-2*MeV^-1)
1.000000e+00 1.669614e+10
1.013939e+00 1.637487e+10
1.028073e+00 1.605479e+10
1.042404e+00 1.574372e+10
1.056935e+00 1.544159e+10
1.071668e+00 1.514714e+10
1.086606e+00 1.485260e+10
1.101753e+00 1.456958e+10
1.117111e+00 1.428979e+10
1.132683e+00 1.401434e+10
1.148472e+00 1.375210e+10
1.164481e+00 1.349236e+10
1.180713e+00 1.323954e+10
1.197171e+00 1.298461e+10
1.213859e+00 1.273378e+10
1.230780e+00 1.248707e+10
1.247936e+00 1.224835e+10
1.265332e+00 1.201567e+10
1.282970e+00 1.179041e+10
1.300854e+00 1.156657e+10
1.318987e+00 1.134867e+10
1.337373e+00 1.113256e+10
1.356015e+00 1.091534e+10
1.374917e+00 1.070200e+10
1.394083e+00 1.049781e+10
1.413516e+00 1.029876e+10
1.433219e+00 1.009929e+10
1.453198e+00 9.903331e+09
1.473454e+00 9.710172e+09
1.493993e+00 9.518995e+09
1.514819e+00 9.336887e+09
1.535935e+00 9.150629e+09
1.557345e+00 8.973334e+09
1.579053e+00 8.801366e+09
1.601064e+00 8.632397e+09
1.623382e+00 8.465813e+09
1.646012e+00 8.304525e+09
1.668956e+00 8.141030e+09
1.692220e+00 7.977991e+09
1.715809e+00 7.822840e+09
1.739726e+00 7.668422e+09
1.763977e+00 7.517673e+09
1.788566e+00 7.371908e+09
1.813498e+00 7.229868e+09
1.838777e+00 7.083177e+09
1.864409e+00 6.944935e+09
1.890397e+00 6.810610e+09
1.916748e+00 6.672957e+09
1.943467e+00 6.537949e+09
1.970558e+00 6.412342e+09
1.998026e+00 6.284608e+09
2.025878e+00 6.157798e+09
2.054117e+00 6.035105e+09
2.082751e+00 5.915816e+09
2.111783e+00 5.799720e+09
2.141220e+00 5.684866e+09
2.171068e+00 5.571011e+09
2.201331e+00 5.459736e+09
2.232016e+00 5.350683e+09
2.263130e+00 5.243670e+09
2.294676e+00 5.136493e+09
2.326663e+00 5.033131e+09
2.359095e+00 4.931275e+09
2.391980e+00 4.828084e+09
2.425323e+00 4.730280e+09
2.459130e+00 4.634055e+09
2.493409e+00 4.539392e+09
2.528166e+00 4.443576e+09
2.563407e+00 4.352993e+09
2.599140e+00 4.265417e+09
2.635371e+00 4.179792e+09
2.672106e+00 4.094388e+09
2.709354e+00 4.009987e+09
2.747121e+00 3.929483e+09
2.785414e+00 3.849721e+09
2.824241e+00 3.772265e+09
2.863610e+00 3.691174e+09
2.903527e+00 3.613801e+09
2.944000e+00 3.537691e+09
2.985038e+00 3.462459e+09
3.026648e+00 3.389215e+09
3.068838e+00 3.319467e+09
3.111616e+00 3.249886e+09
3.154990e+00 3.181825e+09
3.198969e+00 3.114952e+09
3.243561e+00 3.049673e+09
3.288774e+00 2.983566e+09
3.334618e+00 2.922515e+09
3.381101e+00 2.862417e+09
3.428231e+00 2.801836e+09
3.476019e+00 2.741624e+09
3.524473e+00 2.682894e+09
3.573602e+00 2.625290e+09
3.623416e+00 2.569722e+09
3.673925e+00 2.514493e+09
3.725137e+00 2.459910e+09
3.777064e+00 2.406770e+09
3.829714e+00 2.354695e+09
3.883098e+00 2.304042e+09
3.937226e+00 2.253856e+09
3.992109e+00 2.206571e+09
4.047757e+00 2.157982e+09
4.104181e+00 2.111396e+09
4.161391e+00 2.067606e+09
4.219398e+00 2.020670e+09
4.278214e+00 1.974956e+09
4.337850e+00 1.930711e+09
4.398317e+00 1.888262e+09
4.459628e+00 1.846321e+09
4.521792e+00 1.805693e+09
4.584824e+00 1.766157e+09
4.648734e+00 1.727515e+09
4.713535e+00 1.687823e+09
4.779239e+00 1.650057e+09
4.845859e+00 1.613152e+09
4.913407e+00 1.576874e+09
4.981898e+00 1.541429e+09
5.051342e+00 1.506466e+09
5.121755e+00 1.472681e+09
5.193150e+00 1.440132e+09
5.265540e+00 1.406942e+09
5.338938e+00 1.375067e+09
5.413360e+00 1.342364e+09
5.488820e+00 1.311179e+09
5.565331e+00 1.281001e+09
5.642908e+00 1.250438e+09
5.721568e+00 1.221123e+09
5.801323e+00 1.192244e+09
5.882190e+00 1.163962e+09
5.964185e+00 1.137044e+09
6.047322e+00 1.110490e+09
6.131619e+00 1.085264e+09
6.217090e+00 1.060084e+09
6.303753e+00 1.033687e+09
6.391624e+00 1.008881e+09
6.480720e+00 9.852488e+08
6.571058e+00 9.606475e+08
6.662655e+00 9.368566e+08
6.755528e+00 9.137460e+08
6.849697e+00 8.912745e+08
6.945178e+00 8.690239e+08
7.041990e+00 8.471796e+08
7.140151e+00 8.270798e+08
7.239681e+00 8.073977e+08
7.340598e+00 7.858017e+08
7.442922e+00 7.645953e+08
7.546673e+00 7.462119e+08
7.651869e+00 7.267387e+08
7.758532e+00 7.083481e+08
7.866682e+00 6.908712e+08
7.976339e+00 6.738273e+08
8.087525e+00 6.570055e+08
8.200261e+00 6.405620e+08
8.314568e+00 6.237644e+08
8.430468e+00 6.079881e+08
8.547985e+00 5.922817e+08
8.667139e+00 5.773571e+08
8.787954e+00 5.624828e+08
8.910453e+00 5.472685e+08
9.034660e+00 5.333709e+08
9.160598e+00 5.196638e+08
9.288292e+00 5.064683e+08
9.417766e+00 4.935494e+08
9.549045e+00 4.798852e+08
9.682153e+00 4.672040e+08
9.817117e+00 4.542880e+08
9.953962e+00 4.419416e+08
1.009272e+01 4.301542e+08
1.023340e+01 4.189444e+08
1.037605e+01 4.076842e+08
1.052069e+01 3.966810e+08
1.066734e+01 3.860164e+08
1.081604e+01 3.752550e+08
1.096681e+01 3.646212e+08
1.111968e+01 3.546157e+08
1.127468e+01 3.447030e+08
1.143184e+01 3.349729e+08
1.159120e+01 3.256877e+08
1.175277e+01 3.158758e+08
1.191660e+01 3.068392e+08
1.208271e+01 2.982122e+08
1.225114e+01 2.899762e+08
1.242191e+01 2.817051e+08
1.259506e+01 2.737460e+08
1.277063e+01 2.660702e+08
1.294865e+01 2.584580e+08
1.312915e+01 2.510488e+08
1.331216e+01 2.434241e+08
1.349772e+01 2.366807e+08
1.368587e+01 2.296992e+08
1.387665e+01 2.230490e+08
1.407008e+01 2.162947e+08
1.426621e+01 2.098529e+08
1.446507e+01 2.034519e+08
1.466671e+01 1.972125e+08
1.487115e+01 1.912781e+08
1.507845e+01 1.857490e+08
1.528864e+01 1.800029e+08
1.550175e+01 1.745072e+08
1.571784e+01 1.692703e+08
1.593694e+01 1.643009e+08
1.615909e+01 1.591766e+08
1.638434e+01 1.539794e+08
1.661273e+01 1.491837e+08
1.684430e+01 1.446339e+08
1.707910e+01 1.399846e+08
1.731717e+01 1.356383e+08
1.755856e+01 1.310296e+08
1.780332e+01 1.267997e+08
1.805149e+01 1.228234e+08
1.830312e+01 1.189703e+08
1.855825e+01 1.151113e+08
1.881694e+01 1.115375e+08
1.907924e+01 1.081227e+08
1.934520e+01 1.046224e+08
1.961486e+01 1.011075e+08
1.988828e+01 9.787298e+07
2.016551e+01 9.451656e+07
2.044661e+01 9.145865e+07
2.073162e+01 8.845884e+07
2.102061e+01 8.549797e+07
2.131362e+01 8.271337e+07
2.161073e+01 7.995572e+07
2.191197e+01 7.726797e+07
2.221741e+01 7.461747e+07
2.252711e+01 7.205438e+07
2.284112e+01 6.955847e+07
2.315951e+01 6.719391e+07
2.348235e+01 6.492848e+07
2.380968e+01 6.272534e+07
2.414157e+01 6.051267e+07
2.447809e+01 5.835817e+07
2.481930e+01 5.633269e+07
2.516527e+01 5.440059e+07
2.551606e+01 5.245769e+07
2.587174e+01 5.071696e+07
2.623238e+01 4.908642e+07
2.659804e+01 4.737966e+07
2.696881e+01 4.563772e+07
2.734474e+01 4.406311e+07
2.772591e+01 4.252110e+07
2.811239e+01 4.097376e+07
2.850426e+01 3.947403e+07
2.890160e+01 3.802530e+07
2.930447e+01 3.668493e+07
2.971296e+01 3.532094e+07
3.012714e+01 3.411840e+07
3.054710e+01 3.296961e+07
3.097291e+01 3.183370e+07
3.140465e+01 3.074176e+07
3.184242e+01 2.964561e+07
3.228628e+01 2.859812e+07
3.273634e+01 2.757343e+07
3.319266e+01 2.662260e+07
3.365535e+01 2.566034e+07
3.412449e+01 2.475392e+07
3.460016e+01 2.385288e+07
3.508247e+01 2.299747e+07
3.557150e+01 2.214367e+07
3.606735e+01 2.133732e+07
3.657011e+01 2.056700e+07
3.707988e+01 1.986342e+07
3.759675e+01 1.914453e+07
3.812083e+01 1.845242e+07
3.865221e+01 1.777183e+07
3.919100e+01 1.711817e+07
3.973730e+01 1.651800e+07
4.029122e+01 1.593508e+07
4.085286e+01 1.537029e+07
4.142232e+01 1.481088e+07
4.199973e+01 1.427124e+07
4.258518e+01 1.375510e+07
4.317880e+01 1.327896e+07
4.378069e+01 1.278550e+07
4.439097e+01 1.232376e+07
4.500975e+01 1.183711e+07
4.563716e+01 1.140273e+07
4.627332e+01 1.098104e+07
4.691835e+01 1.059540e+07
4.757236e+01 1.019418e+07
4.823549e+01 9.811378e+06
4.890787e+01 9.449317e+06
4.958962e+01 9.100211e+06
5.028087e+01 8.741538e+06
5.098176e+01 8.431905e+06
5.169242e+01 8.111656e+06
5.241298e+01 7.813348e+06
5.314359e+01 7.542151e+06
5.388438e+01 7.258605e+06
5.463550e+01 6.997211e+06
5.539709e+01 6.747004e+06
5.616930e+01 6.496934e+06
5.695227e+01 6.255478e+06
5.774615e+01 6.020000e+06
5.855110e+01 5.785541e+06
5.936727e+01 5.572820e+06
6.019482e+01 5.364425e+06
6.103390e+01 5.162491e+06
6.188468e+01 4.977111e+06
6.274732e+01 4.800867e+06
6.362198e+01 4.622471e+06
6.450884e+01 4.451013e+06
6.540806e+01 4.291027e+06
6.631981e+01 4.133755e+06
6.724427e+01 3.980440e+06
6.818162e+01 3.831527e+06
6.913204e+01 3.691474e+06
7.009570e+01 3.555860e+06
7.107280e+01 3.426695e+06
7.206351e+01 3.289062e+06
7.306804e+01 3.166462e+06
7.408657e+01 3.051003e+06
7.511929e+01 2.937831e+06
7.616642e+01 2.832192e+06
7.722814e+01 2.729598e+06
7.830465e+01 2.626567e+06
7.939618e+01 2.525938e+06
8.050292e+01 2.435215e+06
8.162509e+01 2.342077e+06
8.276289e+01 2.256583e+06
8.391656e+01 2.170179e+06
8.508632e+01 2.090023e+06
8.627237e+01 2.013661e+06
8.747496e+01 1.940193e+06
8.869432e+01 1.869203e+06
8.993067e+01 1.801844e+06
9.118425e+01 1.733310e+06
9.245531e+01 1.668031e+06
9.374409e+01 1.601649e+06
9.505083e+01 1.542279e+06
9.637579e+01 1.484516e+06
9.771921e+01 1.431215e+06
9.908137e+01 1.379592e+06
1.004625e+02 1.327824e+06
1.018629e+02 1.276536e+06
1.032828e+02 1.227796e+06
1.047225e+02 1.182504e+06
1.061823e+02 1.139164e+06
1.076624e+02 1.096095e+06
1.091632e+02 1.057491e+06
1.106848e+02 1.017390e+06
1.122277e+02 9.799314e+05
1.137921e+02 9.429863e+05
1.153783e+02 9.079633e+05
1.169866e+02 8.739239e+05
1.186174e+02 8.395643e+05
1.202708e+02 8.088255e+05
1.219473e+02 7.780301e+05
1.236472e+02 7.494796e+05
1.253708e+02 7.218563e+05
1.271184e+02 6.955334e+05
1.288904e+02 6.697774e+05
1.306870e+02 6.444755e+05
1.325087e+02 6.201482e+05
1.343558e+02 5.966993e+05
1.362287e+02 5.741545e+05
1.381276e+02 5.524222e+05
1.400531e+02 5.316152e+05
1.420053e+02 5.111881e+05
1.439848e+02 4.924011e+05
1.459919e+02 4.739724e+05
1.480269e+02 4.562323e+05
1.500903e+02 4.390627e+05
1.521825e+02 4.223738e+05
1.543038e+02 4.065471e+05
1.564548e+02 3.920608e+05
1.586357e+02 3.773302e+05
1.608469e+02 3.635713e+05
1.630891e+02 3.500785e+05
1.653624e+02 3.368797e+05
1.676675e+02 3.239893e+05
1.700047e+02 3.120604e+05
1.723745e+02 2.999356e+05
1.747773e+02 2.885558e+05
1.772136e+02 2.781143e+05
1.796838e+02 2.679000e+05
1.821885e+02 2.579258e+05
1.847281e+02 2.483205e+05
1.873032e+02 2.390311e+05
1.899141e+02 2.300637e+05
1.925614e+02 2.215471e+05
1.952456e+02 2.133655e+05
1.979672e+02 2.053539e+05
2.007267e+02 1.979974e+05
2.035248e+02 1.906458e+05
2.063618e+02 1.838063e+05
2.092383e+02 1.768190e+05
2.121550e+02 1.700968e+05
2.151123e+02 1.636478e+05
2.181109e+02 1.575448e+05
2.211512e+02 1.516691e+05
2.242340e+02 1.460122e+05
2.273597e+02 1.403858e+05
2.305289e+02 1.349923e+05
2.337424e+02 1.300601e+05
2.370006e+02 1.256478e+05
2.403043e+02 1.210812e+05
2.436540e+02 1.164849e+05
2.470504e+02 1.121570e+05
2.504942e+02 1.080203e+05
2.539859e+02 1.040358e+05
2.575263e+02 1.001554e+05
2.611161e+02 9.654755e+04
2.647559e+02 9.291690e+04
2.684465e+02 8.940812e+04
2.721885e+02 8.613193e+04
2.759826e+02 8.292258e+04
2.798297e+02 7.982872e+04
2.837304e+02 7.684989e+04
2.876854e+02 7.394704e+04
2.916956e+02 7.119830e+04
2.957617e+02 6.859618e+04
2.998844e+02 6.605674e+04
3.040646e+02 6.361132e+04
3.083031e+02 6.125613e+04
3.126007e+02 5.900302e+04
3.169582e+02 5.686081e+04
3.213764e+02 5.469939e+04
3.258562e+02 5.269211e+04
3.303985e+02 5.078747e+04
3.350041e+02 4.886415e+04
3.396739e+02 4.703223e+04
3.444087e+02 4.543413e+04
3.492096e+02 4.372824e+04
3.540774e+02 4.219603e+04
3.590130e+02 4.064638e+04
3.640175e+02 3.914954e+04
3.690917e+02 3.770695e+04
3.742366e+02 3.638580e+04
3.794533e+02 3.505761e+04
3.847427e+02 3.374210e+04
3.901058e+02 3.247571e+04
3.955436e+02 3.125998e+04
4.010573e+02 3.011329e+04
4.066478e+02 2.900047e+04
4.123163e+02 2.791523e+04
4.180637e+02 2.686268e+04
4.238913e+02 2.591726e+04
4.298001e+02 2.503324e+04
4.357913e+02 2.413544e+04
4.418660e+02 2.321284e+04
4.480254e+02 2.234365e+04
4.542706e+02 2.151030e+04
4.606029e+02 2.070786e+04
4.670234e+02 1.993519e+04
4.735335e+02 1.919119e+04
4.801343e+02 1.847405e+04
4.868271e+02 1.777378e+04
4.936132e+02 1.709988e+04
5.004939e+02 1.645138e+04
5.074705e+02 1.584008e+04
5.145444e+02 1.527731e+04
5.217169e+02 1.468114e+04
5.289893e+02 1.412409e+04
5.363631e+02 1.360234e+04
5.438397e+02 1.309776e+04
5.514206e+02 1.261363e+04
5.591071e+02 1.214962e+04
5.669007e+02 1.170260e+04
5.748030e+02 1.127898e+04
5.828155e+02 1.084763e+04
5.909396e+02 1.044025e+04
5.991770e+02 1.005374e+04
6.075292e+02 9.681401e+03
6.159978e+02 9.318879e+03
6.245845e+02 8.968057e+03
6.332908e+02 8.641725e+03
6.421186e+02 8.329837e+03
6.510694e+02 8.018859e+03
6.601449e+02 7.717330e+03
6.693470e+02 7.419091e+03
6.786773e+02 7.134529e+03
6.881377e+02 6.860768e+03
6.977300e+02 6.597400e+03
7.074559e+02 6.354156e+03
7.173175e+02 6.106820e+03
7.273165e+02 5.868500e+03
7.374549e+02 5.642044e+03
7.477346e+02 5.430139e+03
7.581576e+02 5.231444e+03
7.687260e+02 5.040474e+03
7.794416e+02 4.859248e+03
7.903066e+02 4.678307e+03
8.013230e+02 4.503495e+03
8.124930e+02 4.335205e+03
8.238187e+02 4.173195e+03
8.353023e+02 4.017230e+03
8.469460e+02 3.867086e+03
8.587519e+02 3.722545e+03
8.707225e+02 3.583924e+03
8.828599e+02 3.453085e+03
8.951665e+02 3.328543e+03
9.076446e+02 3.212251e+03
9.202967e+02 3.100073e+03
9.331251e+02 2.991860e+03
9.461324e+02 2.887473e+03
9.593209e+02 2.786774e+03
9.726934e+02 2.684826e+03
9.862522e+02 2.584162e+03
1.000000e+03 2.487268e+03
