# Energy(MeV) Planare_Fluence(cm^-2*MeV^-1)
1.000000e+00 3.729428e+10
1.013939e+00 3.643267e+10
1.028073e+00 3.551640e+10
1.042404e+00 3.462980e+10
1.056935e+00 3.375179e+10
1.071668e+00 3.297703e+10
1.086606e+00 3.227531e+10
1.101753e+00 3.158497e+10
1.117111e+00 3.091181e+10
1.132683e+00 3.023595e+10
1.148472e+00 2.952273e+10
1.164481e+00 2.881334e+10
1.180713e+00 2.812080e+10
1.197171e+00 2.744972e+10
1.213859e+00 2.682669e+10
1.230780e+00 2.622890e+10
1.247936e+00 2.560389e+10
1.265332e+00 2.503108e+10
1.282970e+00 2.441582e+10
1.300854e+00 2.382918e+10
1.318987e+00 2.324906e+10
1.337373e+00 2.267430e+10
1.356015e+00 2.212438e+10
1.374917e+00 2.158989e+10
1.394083e+00 2.106674e+10
1.413516e+00 2.055756e+10
1.433219e+00 2.007021e+10
1.453198e+00 1.959140e+10
1.473454e+00 1.911496e+10
1.493993e+00 1.867523e+10
1.514819e+00 1.823174e+10
1.535935e+00 1.781759e+10
1.557345e+00 1.739526e+10
1.579053e+00 1.698814e+10
1.601064e+00 1.656885e+10
1.623382e+00 1.615843e+10
1.646012e+00 1.576812e+10
1.668956e+00 1.540424e+10
1.692220e+00 1.505145e+10
1.715809e+00 1.470685e+10
1.739726e+00 1.434193e+10
1.763977e+00 1.399047e+10
1.788566e+00 1.363678e+10
1.813498e+00 1.330315e+10
1.838777e+00 1.299850e+10
1.864409e+00 1.269730e+10
1.890397e+00 1.239955e+10
1.916748e+00 1.207174e+10
1.943467e+00 1.178790e+10
1.970558e+00 1.150039e+10
1.998026e+00 1.123894e+10
2.025878e+00 1.099439e+10
2.054117e+00 1.071398e+10
2.082751e+00 1.042183e+10
2.111783e+00 1.015238e+10
2.141220e+00 9.917211e+09
2.171068e+00 9.668932e+09
2.201331e+00 9.444165e+09
2.232016e+00 9.217477e+09
2.263130e+00 8.988996e+09
2.294676e+00 8.775872e+09
2.326663e+00 8.538924e+09
2.359095e+00 8.330237e+09
2.391980e+00 8.129808e+09
2.425323e+00 7.928226e+09
2.459130e+00 7.744303e+09
2.493409e+00 7.565461e+09
2.528166e+00 7.379189e+09
2.563407e+00 7.197583e+09
2.599140e+00 7.030088e+09
2.635371e+00 6.857597e+09
2.672106e+00 6.684164e+09
2.709354e+00 6.517108e+09
2.747121e+00 6.351921e+09
2.785414e+00 6.200536e+09
2.824241e+00 6.057873e+09
2.863610e+00 5.897287e+09
2.903527e+00 5.757778e+09
2.944000e+00 5.623145e+09
2.985038e+00 5.486069e+09
3.026648e+00 5.345271e+09
3.068838e+00 5.213182e+09
3.111616e+00 5.084366e+09
3.154990e+00 4.967238e+09
3.198969e+00 4.856921e+09
3.243561e+00 4.739681e+09
3.288774e+00 4.637690e+09
3.334618e+00 4.513606e+09
3.381101e+00 4.416983e+09
3.428231e+00 4.314637e+09
3.476019e+00 4.220443e+09
3.524473e+00 4.120953e+09
3.573602e+00 4.024080e+09
3.623416e+00 3.924447e+09
3.673925e+00 3.834385e+09
3.725137e+00 3.742173e+09
3.777064e+00 3.649778e+09
3.829714e+00 3.562374e+09
3.883098e+00 3.478652e+09
3.937226e+00 3.394557e+09
3.992109e+00 3.315607e+09
4.047757e+00 3.230506e+09
4.104181e+00 3.157204e+09
4.161391e+00 3.078532e+09
4.219398e+00 3.006758e+09
4.278214e+00 2.937995e+09
4.337850e+00 2.868957e+09
4.398317e+00 2.799991e+09
4.459628e+00 2.736327e+09
4.521792e+00 2.673027e+09
4.584824e+00 2.610938e+09
4.648734e+00 2.555444e+09
4.713535e+00 2.487791e+09
4.779239e+00 2.432476e+09
4.845859e+00 2.376769e+09
4.913407e+00 2.320655e+09
4.981898e+00 2.267515e+09
5.051342e+00 2.211898e+09
5.121755e+00 2.155706e+09
5.193150e+00 2.100188e+09
5.265540e+00 2.049046e+09
5.338938e+00 1.996391e+09
5.413360e+00 1.947262e+09
5.488820e+00 1.898732e+09
5.565331e+00 1.853668e+09
5.642908e+00 1.806800e+09
5.721568e+00 1.763322e+09
5.801323e+00 1.717931e+09
5.882190e+00 1.674291e+09
5.964185e+00 1.634291e+09
6.047322e+00 1.594544e+09
6.131619e+00 1.554605e+09
6.217090e+00 1.514218e+09
6.303753e+00 1.479362e+09
6.391624e+00 1.445413e+09
6.480720e+00 1.404249e+09
6.571058e+00 1.368635e+09
6.662655e+00 1.331901e+09
6.755528e+00 1.297880e+09
6.849697e+00 1.269102e+09
6.945178e+00 1.236812e+09
7.041990e+00 1.205702e+09
7.140151e+00 1.171598e+09
7.239681e+00 1.141539e+09
7.340598e+00 1.111286e+09
7.442922e+00 1.082083e+09
7.546673e+00 1.053979e+09
7.651869e+00 1.026456e+09
7.758532e+00 9.998731e+08
7.866682e+00 9.720410e+08
7.976339e+00 9.460640e+08
8.087525e+00 9.214827e+08
8.200261e+00 8.979254e+08
8.314568e+00 8.744833e+08
8.430468e+00 8.506526e+08
8.547985e+00 8.267286e+08
8.667139e+00 8.044478e+08
8.787954e+00 7.823134e+08
8.910453e+00 7.596530e+08
9.034660e+00 7.383229e+08
9.160598e+00 7.175390e+08
9.288292e+00 6.971765e+08
9.417766e+00 6.772262e+08
9.549045e+00 6.572785e+08
9.682153e+00 6.386352e+08
9.817117e+00 6.204373e+08
9.953962e+00 6.026533e+08
1.009272e+01 5.851945e+08
1.023340e+01 5.676638e+08
1.037605e+01 5.509337e+08
1.052069e+01 5.339050e+08
1.066734e+01 5.178279e+08
1.081604e+01 5.016730e+08
1.096681e+01 4.864690e+08
1.111968e+01 4.721898e+08
1.127468e+01 4.582388e+08
1.143184e+01 4.442338e+08
1.159120e+01 4.307769e+08
1.175277e+01 4.176749e+08
1.191660e+01 4.046546e+08
1.208271e+01 3.913755e+08
1.225114e+01 3.789127e+08
1.242191e+01 3.670432e+08
1.259506e+01 3.553281e+08
1.277063e+01 3.437026e+08
1.294865e+01 3.327833e+08
1.312915e+01 3.221881e+08
1.331216e+01 3.119365e+08
1.349772e+01 3.018951e+08
1.368587e+01 2.919551e+08
1.387665e+01 2.821173e+08
1.407008e+01 2.731307e+08
1.426621e+01 2.642327e+08
1.446507e+01 2.556841e+08
1.466671e+01 2.472071e+08
1.487115e+01 2.390296e+08
1.507845e+01 2.309885e+08
1.528864e+01 2.229350e+08
1.550175e+01 2.153755e+08
1.571784e+01 2.078298e+08
1.593694e+01 2.007861e+08
1.615909e+01 1.941391e+08
1.638434e+01 1.877127e+08
1.661273e+01 1.811524e+08
1.684430e+01 1.751494e+08
1.707910e+01 1.690544e+08
1.731717e+01 1.633731e+08
1.755856e+01 1.574952e+08
1.780332e+01 1.520839e+08
1.805149e+01 1.468563e+08
1.830312e+01 1.417450e+08
1.855825e+01 1.367306e+08
1.881694e+01 1.317522e+08
1.907924e+01 1.270507e+08
1.934520e+01 1.224154e+08
1.961486e+01 1.179970e+08
1.988828e+01 1.138461e+08
2.016551e+01 1.097282e+08
2.044661e+01 1.058627e+08
2.073162e+01 1.021348e+08
2.102061e+01 9.851974e+07
2.131362e+01 9.504308e+07
2.161073e+01 9.159259e+07
2.191197e+01 8.823535e+07
2.221741e+01 8.500024e+07
2.252711e+01 8.195474e+07
2.284112e+01 7.901946e+07
2.315951e+01 7.616867e+07
2.348235e+01 7.342261e+07
2.380968e+01 7.074761e+07
2.414157e+01 6.818510e+07
2.447809e+01 6.561938e+07
2.481930e+01 6.325865e+07
2.516527e+01 6.101967e+07
2.551606e+01 5.877167e+07
2.587174e+01 5.657123e+07
2.623238e+01 5.448850e+07
2.659804e+01 5.240046e+07
2.696881e+01 5.039349e+07
2.734474e+01 4.853554e+07
2.772591e+01 4.675295e+07
2.811239e+01 4.500671e+07
2.850426e+01 4.333464e+07
2.890160e+01 4.173200e+07
2.930447e+01 4.012109e+07
2.971296e+01 3.860134e+07
3.012714e+01 3.711727e+07
3.054710e+01 3.570637e+07
3.097291e+01 3.432982e+07
3.140465e+01 3.304069e+07
3.184242e+01 3.178992e+07
3.228628e+01 3.058123e+07
3.273634e+01 2.939275e+07
3.319266e+01 2.827308e+07
3.365535e+01 2.720136e+07
3.412449e+01 2.611588e+07
3.460016e+01 2.510073e+07
3.508247e+01 2.413595e+07
3.557150e+01 2.319289e+07
3.606735e+01 2.229170e+07
3.657011e+01 2.145564e+07
3.707988e+01 2.061019e+07
3.759675e+01 1.979700e+07
3.812083e+01 1.904488e+07
3.865221e+01 1.828910e+07
3.919100e+01 1.756908e+07
3.973730e+01 1.688591e+07
4.029122e+01 1.620892e+07
4.085286e+01 1.557392e+07
4.142232e+01 1.495464e+07
4.199973e+01 1.436740e+07
4.258518e+01 1.381120e+07
4.317880e+01 1.326573e+07
4.378069e+01 1.274298e+07
4.439097e+01 1.223909e+07
4.500975e+01 1.174610e+07
4.563716e+01 1.128923e+07
4.627332e+01 1.084005e+07
4.691835e+01 1.040357e+07
4.757236e+01 9.979200e+06
4.823549e+01 9.581769e+06
4.890787e+01 9.196006e+06
4.958962e+01 8.828782e+06
5.028087e+01 8.471366e+06
5.098176e+01 8.118529e+06
5.169242e+01 7.785492e+06
5.241298e+01 7.475179e+06
5.314359e+01 7.177348e+06
5.388438e+01 6.885830e+06
5.463550e+01 6.606978e+06
5.539709e+01 6.344281e+06
5.616930e+01 6.081717e+06
5.695227e+01 5.835353e+06
5.774615e+01 5.601705e+06
5.855110e+01 5.374898e+06
5.936727e+01 5.157919e+06
6.019482e+01 4.950804e+06
6.103390e+01 4.747871e+06
6.188468e+01 4.548700e+06
6.274732e+01 4.365048e+06
6.362198e+01 4.186122e+06
6.450884e+01 4.013601e+06
6.540806e+01 3.849144e+06
6.631981e+01 3.690868e+06
6.724427e+01 3.536917e+06
6.818162e+01 3.394325e+06
6.913204e+01 3.256882e+06
7.009570e+01 3.123333e+06
7.107280e+01 2.996158e+06
7.206351e+01 2.869625e+06
7.306804e+01 2.752171e+06
7.408657e+01 2.639148e+06
7.511929e+01 2.529764e+06
7.616642e+01 2.425420e+06
7.722814e+01 2.324615e+06
7.830465e+01 2.229229e+06
7.939618e+01 2.137719e+06
8.050292e+01 2.048167e+06
8.162509e+01 1.961855e+06
8.276289e+01 1.882994e+06
8.391656e+01 1.805468e+06
8.508632e+01 1.731788e+06
8.627237e+01 1.660024e+06
8.747496e+01 1.590313e+06
8.869432e+01 1.523483e+06
8.993067e+01 1.460551e+06
9.118425e+01 1.398868e+06
9.245531e+01 1.339016e+06
9.374409e+01 1.283918e+06
9.505083e+01 1.230633e+06
9.637579e+01 1.179310e+06
9.771921e+01 1.130643e+06
9.908137e+01 1.083851e+06
1.004625e+02 1.038519e+06
1.018629e+02 9.957016e+05
1.032828e+02 9.539947e+05
1.047225e+02 9.139249e+05
1.061823e+02 8.753930e+05
1.076624e+02 8.388163e+05
1.091632e+02 8.045699e+05
1.106848e+02 7.703888e+05
1.122277e+02 7.386723e+05
1.137921e+02 7.086646e+05
1.153783e+02 6.793394e+05
1.169866e+02 6.513959e+05
1.186174e+02 6.249439e+05
1.202708e+02 5.993812e+05
1.219473e+02 5.743265e+05
1.236472e+02 5.513344e+05
1.253708e+02 5.281256e+05
1.271184e+02 5.063515e+05
1.288904e+02 4.849958e+05
1.306870e+02 4.642845e+05
1.325087e+02 4.451054e+05
1.343558e+02 4.265712e+05
1.362287e+02 4.086553e+05
1.381276e+02 3.922717e+05
1.400531e+02 3.760593e+05
1.420053e+02 3.604889e+05
1.439848e+02 3.455534e+05
1.459919e+02 3.313027e+05
1.480269e+02 3.175073e+05
1.500903e+02 3.043136e+05
1.521825e+02 2.914371e+05
1.543038e+02 2.792978e+05
1.564548e+02 2.676595e+05
1.586357e+02 2.565895e+05
1.608469e+02 2.459478e+05
1.630891e+02 2.357617e+05
1.653624e+02 2.260165e+05
1.676675e+02 2.166176e+05
1.700047e+02 2.074196e+05
1.723745e+02 1.984527e+05
1.747773e+02 1.902407e+05
1.772136e+02 1.823001e+05
1.796838e+02 1.748722e+05
1.821885e+02 1.677088e+05
1.847281e+02 1.607364e+05
1.873032e+02 1.540270e+05
1.899141e+02 1.475419e+05
1.925614e+02 1.413906e+05
1.952456e+02 1.354968e+05
1.979672e+02 1.298067e+05
2.007267e+02 1.243417e+05
2.035248e+02 1.191497e+05
2.063618e+02 1.141904e+05
2.092383e+02 1.094169e+05
2.121550e+02 1.048752e+05
2.151123e+02 1.004608e+05
2.181109e+02 9.637954e+04
2.211512e+02 9.248861e+04
2.242340e+02 8.867844e+04
2.273597e+02 8.503042e+04
2.305289e+02 8.155084e+04
2.337424e+02 7.811122e+04
2.370006e+02 7.484157e+04
2.403043e+02 7.174192e+04
2.436540e+02 6.879365e+04
2.470504e+02 6.589333e+04
2.504942e+02 6.317575e+04
2.539859e+02 6.059071e+04
2.575263e+02 5.805657e+04
2.611161e+02 5.566489e+04
2.647559e+02 5.331434e+04
2.684465e+02 5.113133e+04
2.721885e+02 4.899402e+04
2.759826e+02 4.692496e+04
2.798297e+02 4.498563e+04
2.837304e+02 4.312379e+04
2.876854e+02 4.136011e+04
2.916956e+02 3.970519e+04
2.957617e+02 3.806422e+04
2.998844e+02 3.645842e+04
3.040646e+02 3.494618e+04
3.083031e+02 3.347777e+04
3.126007e+02 3.207864e+04
3.169582e+02 3.071187e+04
3.213764e+02 2.942336e+04
3.258562e+02 2.819372e+04
3.303985e+02 2.701239e+04
3.350041e+02 2.590262e+04
3.396739e+02 2.482594e+04
3.444087e+02 2.379180e+04
3.492096e+02 2.278701e+04
3.540774e+02 2.185018e+04
3.590130e+02 2.095977e+04
3.640175e+02 2.009774e+04
3.690917e+02 1.926763e+04
3.742366e+02 1.846825e+04
3.794533e+02 1.769788e+04
3.847427e+02 1.695251e+04
3.901058e+02 1.624585e+04
3.955436e+02 1.558047e+04
4.010573e+02 1.494561e+04
4.066478e+02 1.433221e+04
4.123163e+02 1.373975e+04
4.180637e+02 1.316737e+04
4.238913e+02 1.261817e+04
4.298001e+02 1.209559e+04
4.357913e+02 1.158979e+04
4.418660e+02 1.110983e+04
4.480254e+02 1.065688e+04
4.542706e+02 1.021348e+04
4.606029e+02 9.791201e+03
4.670234e+02 9.382367e+03
4.735335e+02 8.995469e+03
4.801343e+02 8.620350e+03
4.868271e+02 8.263357e+03
4.936132e+02 7.924859e+03
5.004939e+02 7.603480e+03
5.074705e+02 7.282045e+03
5.145444e+02 6.979260e+03
5.217169e+02 6.692478e+03
5.289893e+02 6.412559e+03
5.363631e+02 6.142774e+03
5.438397e+02 5.887395e+03
5.514206e+02 5.643987e+03
5.591071e+02 5.409898e+03
5.669007e+02 5.189325e+03
5.748030e+02 4.979320e+03
5.828155e+02 4.777379e+03
5.909396e+02 4.577772e+03
5.991770e+02 4.388658e+03
6.075292e+02 4.205951e+03
6.159978e+02 4.033819e+03
6.245845e+02 3.868119e+03
6.332908e+02 3.708674e+03
6.421186e+02 3.555646e+03
6.510694e+02 3.410023e+03
6.601449e+02 3.269580e+03
6.693470e+02 3.135253e+03
6.786773e+02 3.006228e+03
6.881377e+02 2.882709e+03
6.977300e+02 2.765068e+03
7.074559e+02 2.651480e+03
7.173175e+02 2.543380e+03
7.273165e+02 2.438318e+03
7.374549e+02 2.336944e+03
7.477346e+02 2.238975e+03
7.581576e+02 2.147487e+03
7.687260e+02 2.060024e+03
7.794416e+02 1.974430e+03
7.903066e+02 1.892026e+03
8.013230e+02 1.813661e+03
8.124930e+02 1.739440e+03
8.238187e+02 1.667887e+03
8.353023e+02 1.598888e+03
8.469460e+02 1.531243e+03
8.587519e+02 1.467655e+03
8.707225e+02 1.407347e+03
8.828599e+02 1.349683e+03
8.951665e+02 1.293332e+03
9.076446e+02 1.240011e+03
9.202967e+02 1.187805e+03
9.331251e+02 1.138360e+03
9.461324e+02 1.091429e+03
9.593209e+02 1.045704e+03
9.726934e+02 1.002234e+03
9.862522e+02 9.605705e+02
1.000000e+03 9.207906e+02
