# Energy(MeV) Phi16 Phi84
5.000000e-02 7.502498e+11 1.108255e+12
5.100225e-02 7.315353e+11 1.078375e+12
5.202458e-02 7.134073e+11 1.049241e+12
5.306741e-02 6.958096e+11 1.021060e+12
5.413114e-02 6.786570e+11 9.928356e+11
5.521620e-02 6.620339e+11 9.653241e+11
5.632300e-02 6.458477e+11 9.385837e+11
5.745199e-02 6.299790e+11 9.136688e+11
5.860361e-02 6.144272e+11 8.894142e+11
5.977832e-02 5.993703e+11 8.653772e+11
6.097657e-02 5.842116e+11 8.416577e+11
6.219884e-02 5.695754e+11 8.182577e+11
6.344561e-02 5.557285e+11 7.952978e+11
6.471737e-02 5.419366e+11 7.730663e+11
6.601463e-02 5.284861e+11 7.516962e+11
6.733789e-02 5.154957e+11 7.317983e+11
6.868767e-02 5.029696e+11 7.122470e+11
7.006451e-02 4.901218e+11 6.927059e+11
7.146895e-02 4.777712e+11 6.736943e+11
7.290154e-02 4.661224e+11 6.552038e+11
7.436284e-02 4.549444e+11 6.372153e+11
7.585344e-02 4.436371e+11 6.197885e+11
7.737392e-02 4.324326e+11 6.028645e+11
7.892487e-02 4.219692e+11 5.864020e+11
8.050691e-02 4.118678e+11 5.713551e+11
8.212067e-02 4.019898e+11 5.558342e+11
8.376677e-02 3.922499e+11 5.405257e+11
8.544587e-02 3.829356e+11 5.260703e+11
8.715862e-02 3.732161e+11 5.117647e+11
8.890571e-02 3.634908e+11 4.980641e+11
9.068782e-02 3.541616e+11 4.847723e+11
9.250565e-02 3.454061e+11 4.711060e+11
9.435992e-02 3.370053e+11 4.583240e+11
9.625136e-02 3.288105e+11 4.461190e+11
9.818071e-02 3.209883e+11 4.337834e+11
1.001487e-01 3.132717e+11 4.217882e+11
1.021562e-01 3.052109e+11 4.101241e+11
1.042039e-01 2.976828e+11 3.987819e+11
1.062927e-01 2.903578e+11 3.877763e+11
1.084233e-01 2.831748e+11 3.771245e+11
1.105966e-01 2.758290e+11 3.667487e+11
1.128135e-01 2.689682e+11 3.568556e+11
1.150749e-01 2.622264e+11 3.473612e+11
1.173816e-01 2.554828e+11 3.381354e+11
1.197345e-01 2.489129e+11 3.288469e+11
1.221345e-01 2.427354e+11 3.197711e+11
1.245827e-01 2.367256e+11 3.109735e+11
1.270800e-01 2.307985e+11 3.026298e+11
1.296273e-01 2.248881e+11 2.945419e+11
1.322256e-01 2.190339e+11 2.864862e+11
1.348761e-01 2.134543e+11 2.787917e+11
1.375797e-01 2.081164e+11 2.714119e+11
1.403374e-01 2.028011e+11 2.640630e+11
1.431505e-01 1.978596e+11 2.570845e+11
1.460199e-01 1.928880e+11 2.503465e+11
1.489469e-01 1.880273e+11 2.435454e+11
1.519325e-01 1.832451e+11 2.369118e+11
1.549780e-01 1.786533e+11 2.304244e+11
1.580845e-01 1.741240e+11 2.241230e+11
1.612533e-01 1.697644e+11 2.179400e+11
1.644856e-01 1.653440e+11 2.119757e+11
1.677827e-01 1.610680e+11 2.061584e+11
1.711459e-01 1.568505e+11 2.006285e+11
1.745765e-01 1.527537e+11 1.951747e+11
1.780759e-01 1.487414e+11 1.899861e+11
1.816454e-01 1.450039e+11 1.848737e+11
1.852865e-01 1.413957e+11 1.799614e+11
1.890005e-01 1.378329e+11 1.752323e+11
1.927890e-01 1.343139e+11 1.706090e+11
1.966535e-01 1.308483e+11 1.660382e+11
2.005954e-01 1.276504e+11 1.615086e+11
2.046163e-01 1.243105e+11 1.572266e+11
2.087178e-01 1.212131e+11 1.531209e+11
2.129015e-01 1.180944e+11 1.490210e+11
2.171691e-01 1.150263e+11 1.450343e+11
2.215223e-01 1.121352e+11 1.411829e+11
2.259627e-01 1.093714e+11 1.374490e+11
2.304921e-01 1.066017e+11 1.337046e+11
2.351123e-01 1.039836e+11 1.302197e+11
2.398251e-01 1.013497e+11 1.268149e+11
2.446324e-01 9.871775e+10 1.232293e+11
2.495360e-01 9.624015e+10 1.199373e+11
2.545379e-01 9.378634e+10 1.167826e+11
2.596401e-01 9.135631e+10 1.136540e+11
2.648446e-01 8.904442e+10 1.106226e+11
2.701534e-01 8.679254e+10 1.076186e+11
2.755686e-01 8.459768e+10 1.047835e+11
2.810923e-01 8.246165e+10 1.020178e+11
2.867268e-01 8.028212e+10 9.914181e+10
2.924742e-01 7.830421e+10 9.640221e+10
2.983368e-01 7.639914e+10 9.371475e+10
3.043170e-01 7.442632e+10 9.118457e+10
3.104170e-01 7.256013e+10 8.870329e+10
3.166393e-01 7.067444e+10 8.632199e+10
3.229863e-01 6.885409e+10 8.406192e+10
3.294605e-01 6.707466e+10 8.189767e+10
3.360645e-01 6.531843e+10 7.966385e+10
3.428009e-01 6.373627e+10 7.747745e+10
3.496723e-01 6.209944e+10 7.541763e+10
3.566815e-01 6.051792e+10 7.339262e+10
3.638311e-01 5.893089e+10 7.147114e+10
3.711241e-01 5.737087e+10 6.960531e+10
3.785633e-01 5.582391e+10 6.773383e+10
3.861515e-01 5.438941e+10 6.584272e+10
3.938919e-01 5.299266e+10 6.411008e+10
4.017874e-01 5.163599e+10 6.239457e+10
4.098412e-01 5.026747e+10 6.077147e+10
4.180565e-01 4.893506e+10 5.913624e+10
4.264364e-01 4.767285e+10 5.754958e+10
4.349843e-01 4.642501e+10 5.599118e+10
4.437035e-01 4.522898e+10 5.449227e+10
4.525975e-01 4.406065e+10 5.304713e+10
4.616698e-01 4.289388e+10 5.162956e+10
4.709239e-01 4.175911e+10 5.026830e+10
4.803635e-01 4.066001e+10 4.894483e+10
4.899924e-01 3.956842e+10 4.765269e+10
4.998143e-01 3.851139e+10 4.635777e+10
5.098330e-01 3.752313e+10 4.511257e+10
5.200526e-01 3.654846e+10 4.392353e+10
5.304770e-01 3.558636e+10 4.276637e+10
5.411103e-01 3.466560e+10 4.161757e+10
5.519569e-01 3.379097e+10 4.049015e+10
5.630208e-01 3.288983e+10 3.938680e+10
5.743065e-01 3.202346e+10 3.833144e+10
5.858184e-01 3.117556e+10 3.729675e+10
5.975611e-01 3.039718e+10 3.629977e+10
6.095392e-01 2.958685e+10 3.532820e+10
6.217573e-01 2.880124e+10 3.437937e+10
6.342204e-01 2.806178e+10 3.347946e+10
6.469333e-01 2.728786e+10 3.261316e+10
6.599011e-01 2.657040e+10 3.175378e+10
6.731287e-01 2.586188e+10 3.089968e+10
6.866215e-01 2.516357e+10 3.007494e+10
7.003848e-01 2.450707e+10 2.926901e+10
7.144240e-01 2.383873e+10 2.848319e+10
7.287445e-01 2.317390e+10 2.771752e+10
7.433522e-01 2.252551e+10 2.698147e+10
7.582526e-01 2.191374e+10 2.627337e+10
7.734517e-01 2.131113e+10 2.556224e+10
7.889555e-01 2.073393e+10 2.487006e+10
8.047701e-01 2.016570e+10 2.423343e+10
8.209016e-01 1.962728e+10 2.361508e+10
8.373565e-01 1.908477e+10 2.297736e+10
8.541413e-01 1.857932e+10 2.235515e+10
8.712625e-01 1.809522e+10 2.176113e+10
8.887268e-01 1.759422e+10 2.117397e+10
9.065413e-01 1.712633e+10 2.060828e+10
9.247129e-01 1.666555e+10 2.006898e+10
9.432487e-01 1.622755e+10 1.954049e+10
9.621560e-01 1.578462e+10 1.902664e+10
9.814423e-01 1.535703e+10 1.852616e+10
1.001115e+00 1.493761e+10 1.802586e+10
1.021183e+00 1.452071e+10 1.755007e+10
1.041652e+00 1.412036e+10 1.708482e+10
1.062532e+00 1.372241e+10 1.662782e+10
1.083830e+00 1.334710e+10 1.618180e+10
1.105556e+00 1.298186e+10 1.573813e+10
1.127716e+00 1.262885e+10 1.531623e+10
1.150321e+00 1.227667e+10 1.491190e+10
1.173379e+00 1.193708e+10 1.451289e+10
1.196900e+00 1.161043e+10 1.412214e+10
1.220892e+00 1.129144e+10 1.372938e+10
1.245364e+00 1.097090e+10 1.337677e+10
1.270327e+00 1.066414e+10 1.301553e+10
1.295791e+00 1.036639e+10 1.265782e+10
1.321765e+00 1.007936e+10 1.231169e+10
1.348260e+00 9.796699e+09 1.198331e+10
1.375286e+00 9.519718e+09 1.165206e+10
1.402853e+00 9.253096e+09 1.134634e+10
1.430973e+00 8.997838e+09 1.104175e+10
1.459657e+00 8.749320e+09 1.073692e+10
1.488916e+00 8.498177e+09 1.045002e+10
1.518761e+00 8.249884e+09 1.016133e+10
1.549204e+00 8.026806e+09 9.880135e+09
1.580258e+00 7.807977e+09 9.608244e+09
1.611934e+00 7.583770e+09 9.343801e+09
1.644245e+00 7.371766e+09 9.089186e+09
1.677204e+00 7.164362e+09 8.842478e+09
1.710823e+00 6.961824e+09 8.596699e+09
1.745117e+00 6.765674e+09 8.358365e+09
1.780097e+00 6.577420e+09 8.124474e+09
1.815779e+00 6.394229e+09 7.901857e+09
1.852176e+00 6.217125e+09 7.678689e+09
1.889303e+00 6.038754e+09 7.464228e+09
1.927174e+00 5.866685e+09 7.253313e+09
1.965804e+00 5.695765e+09 7.052018e+09
2.005209e+00 5.529913e+09 6.851668e+09
2.045403e+00 5.368664e+09 6.654931e+09
2.086403e+00 5.217389e+09 6.467430e+09
2.128224e+00 5.070986e+09 6.285303e+09
2.170885e+00 4.921731e+09 6.112135e+09
2.214400e+00 4.775724e+09 5.944492e+09
2.258787e+00 4.633945e+09 5.778147e+09
2.304064e+00 4.501307e+09 5.614617e+09
2.350249e+00 4.367236e+09 5.455674e+09
2.397360e+00 4.238726e+09 5.300047e+09
2.445415e+00 4.118737e+09 5.148966e+09
2.494433e+00 3.995977e+09 5.003007e+09
2.544434e+00 3.876607e+09 4.862376e+09
2.595437e+00 3.761010e+09 4.722115e+09
2.647462e+00 3.652161e+09 4.586861e+09
2.700530e+00 3.544428e+09 4.454901e+09
2.754662e+00 3.437005e+09 4.326538e+09
2.809879e+00 3.339780e+09 4.201867e+09
2.866203e+00 3.244143e+09 4.081246e+09
2.923656e+00 3.146167e+09 3.966242e+09
2.982260e+00 3.054897e+09 3.851703e+09
3.042039e+00 2.959318e+09 3.739029e+09
3.103017e+00 2.874245e+09 3.627885e+09
3.165216e+00 2.791546e+09 3.525899e+09
3.228663e+00 2.711091e+09 3.423854e+09
3.293381e+00 2.630110e+09 3.326557e+09
3.359397e+00 2.549816e+09 3.229114e+09
3.426736e+00 2.475037e+09 3.134597e+09
3.495424e+00 2.402408e+09 3.039795e+09
3.565490e+00 2.330670e+09 2.950412e+09
3.636960e+00 2.258764e+09 2.862758e+09
3.709862e+00 2.190354e+09 2.777470e+09
3.784226e+00 2.124634e+09 2.694284e+09
3.860081e+00 2.060880e+09 2.614017e+09
3.937456e+00 1.998872e+09 2.536370e+09
4.016382e+00 1.936703e+09 2.458665e+09
4.096890e+00 1.876732e+09 2.384444e+09
4.179012e+00 1.818856e+09 2.313399e+09
4.262780e+00 1.761879e+09 2.241691e+09
4.348227e+00 1.708169e+09 2.171333e+09
4.435387e+00 1.655315e+09 2.105312e+09
4.524294e+00 1.604143e+09 2.037644e+09
4.614983e+00 1.554565e+09 1.973582e+09
4.707490e+00 1.505216e+09 1.913919e+09
4.801851e+00 1.458953e+09 1.853769e+09
4.898104e+00 1.413732e+09 1.797361e+09
4.996286e+00 1.369799e+09 1.743795e+09
5.096436e+00 1.326641e+09 1.689264e+09
5.198594e+00 1.284431e+09 1.634884e+09
5.302799e+00 1.243130e+09 1.584072e+09
5.409093e+00 1.203914e+09 1.534087e+09
5.517518e+00 1.165545e+09 1.485535e+09
5.628116e+00 1.125077e+09 1.436192e+09
5.740932e+00 1.088670e+09 1.391295e+09
5.856008e+00 1.053159e+09 1.347362e+09
5.973391e+00 1.018360e+09 1.304890e+09
6.093127e+00 9.844660e+08 1.262336e+09
6.215264e+00 9.516572e+08 1.221036e+09
6.339848e+00 9.203704e+08 1.181440e+09
6.466930e+00 8.890952e+08 1.143642e+09
6.596559e+00 8.605139e+08 1.106894e+09
6.728787e+00 8.323661e+08 1.069756e+09
6.863665e+00 8.042054e+08 1.035418e+09
7.001246e+00 7.767205e+08 1.001380e+09
7.141586e+00 7.498250e+08 9.684812e+08
7.284738e+00 7.244839e+08 9.356575e+08
7.430760e+00 6.997295e+08 9.042779e+08
7.579709e+00 6.736785e+08 8.733569e+08
7.731644e+00 6.504780e+08 8.436439e+08
7.886624e+00 6.256531e+08 8.152832e+08
8.044711e+00 6.046137e+08 7.879630e+08
8.205967e+00 5.831300e+08 7.603307e+08
8.370455e+00 5.621983e+08 7.326956e+08
8.538240e+00 5.418181e+08 7.072969e+08
8.709388e+00 5.217677e+08 6.818040e+08
8.883967e+00 5.019872e+08 6.579435e+08
9.062045e+00 4.844029e+08 6.349083e+08
9.243693e+00 4.666426e+08 6.125854e+08
9.428983e+00 4.488408e+08 5.913088e+08
9.617986e+00 4.318774e+08 5.694177e+08
9.810778e+00 4.164468e+08 5.480233e+08
1.000743e+01 4.015101e+08 5.286889e+08
1.020803e+01 3.869231e+08 5.094050e+08
1.041265e+01 3.728754e+08 4.905500e+08
1.062137e+01 3.591247e+08 4.722773e+08
1.083428e+01 3.458115e+08 4.550482e+08
1.105145e+01 3.320880e+08 4.386168e+08
1.127297e+01 3.200324e+08 4.230865e+08
1.149894e+01 3.079041e+08 4.072536e+08
1.172944e+01 2.960634e+08 3.923423e+08
1.196455e+01 2.847695e+08 3.773186e+08
1.220438e+01 2.733802e+08 3.627921e+08
1.244902e+01 2.623772e+08 3.489722e+08
1.269856e+01 2.516057e+08 3.355526e+08
1.295310e+01 2.411911e+08 3.226278e+08
1.321274e+01 2.313444e+08 3.101784e+08
1.347759e+01 2.218043e+08 2.975829e+08
1.374775e+01 2.124452e+08 2.857193e+08
1.402332e+01 2.031149e+08 2.743529e+08
1.430442e+01 1.947871e+08 2.631062e+08
1.459115e+01 1.858915e+08 2.528497e+08
1.488362e+01 1.776247e+08 2.421433e+08
1.518197e+01 1.699614e+08 2.317966e+08
1.548629e+01 1.628241e+08 2.222055e+08
1.579671e+01 1.559532e+08 2.129307e+08
1.611335e+01 1.493195e+08 2.039422e+08
1.643634e+01 1.427008e+08 1.954527e+08
1.676581e+01 1.362871e+08 1.874117e+08
1.710188e+01 1.302718e+08 1.798485e+08
1.744468e+01 1.242911e+08 1.720148e+08
1.779436e+01 1.184160e+08 1.645209e+08
1.815105e+01 1.128414e+08 1.572637e+08
1.851488e+01 1.074375e+08 1.503337e+08
1.888601e+01 1.024105e+08 1.437774e+08
1.926458e+01 9.741980e+07 1.372913e+08
1.965074e+01 9.294860e+07 1.311868e+08
2.004464e+01 8.861670e+07 1.253421e+08
2.044643e+01 8.430766e+07 1.198117e+08
2.085628e+01 8.033863e+07 1.145265e+08
2.127434e+01 7.624880e+07 1.092258e+08
2.170078e+01 7.224682e+07 1.043456e+08
2.213577e+01 6.865102e+07 9.965639e+07
2.257948e+01 6.523659e+07 9.506596e+07
2.303209e+01 6.197266e+07 9.062139e+07
2.349376e+01 5.888542e+07 8.641361e+07
2.396469e+01 5.591394e+07 8.235104e+07
2.444506e+01 5.309240e+07 7.847168e+07
2.493506e+01 5.035934e+07 7.465270e+07
2.543488e+01 4.783682e+07 7.100290e+07
2.594472e+01 4.532025e+07 6.758767e+07
2.646478e+01 4.310118e+07 6.415839e+07
2.699527e+01 4.093780e+07 6.104394e+07
2.753639e+01 3.884418e+07 5.796693e+07
2.808835e+01 3.686107e+07 5.505888e+07
2.865138e+01 3.495344e+07 5.219082e+07
2.922570e+01 3.314801e+07 4.958991e+07
2.981152e+01 3.146365e+07 4.694275e+07
3.040909e+01 2.986936e+07 4.456106e+07
3.101864e+01 2.834829e+07 4.220572e+07
3.164041e+01 2.691343e+07 4.000933e+07
3.227464e+01 2.555174e+07 3.791907e+07
3.292158e+01 2.425937e+07 3.597678e+07
3.358149e+01 2.303760e+07 3.405022e+07
3.425463e+01 2.187794e+07 3.217871e+07
3.494126e+01 2.077665e+07 3.044922e+07
3.564165e+01 1.970604e+07 2.885562e+07
3.635609e+01 1.870658e+07 2.728514e+07
3.708484e+01 1.772746e+07 2.585080e+07
3.782820e+01 1.679451e+07 2.446333e+07
3.858647e+01 1.590092e+07 2.315750e+07
3.935993e+01 1.506198e+07 2.187960e+07
4.014890e+01 1.431465e+07 2.070598e+07
4.095368e+01 1.360590e+07 1.959849e+07
4.177459e+01 1.289829e+07 1.852754e+07
4.261196e+01 1.221835e+07 1.753652e+07
4.346611e+01 1.158858e+07 1.659429e+07
4.433739e+01 1.099605e+07 1.568411e+07
4.522613e+01 1.041854e+07 1.481305e+07
4.613268e+01 9.887491e+06 1.399831e+07
4.705741e+01 9.383271e+06 1.325323e+07
4.800067e+01 8.897471e+06 1.254872e+07
4.896284e+01 8.436160e+06 1.185804e+07
4.994430e+01 8.005012e+06 1.121589e+07
5.094543e+01 7.596380e+06 1.062192e+07
5.196662e+01 7.197206e+06 1.005042e+07
5.300829e+01 6.820197e+06 9.517183e+06
5.407084e+01 6.462933e+06 9.011534e+06
5.515468e+01 6.124466e+06 8.528717e+06
5.626026e+01 5.803694e+06 8.067007e+06
5.738799e+01 5.507242e+06 7.637381e+06
5.853833e+01 5.225935e+06 7.231064e+06
5.971172e+01 4.958651e+06 6.846198e+06
6.090864e+01 4.692369e+06 6.478010e+06
6.212955e+01 4.440387e+06 6.127771e+06
6.337493e+01 4.201938e+06 5.795365e+06
6.464528e+01 3.978046e+06 5.473910e+06
6.594109e+01 3.777254e+06 5.177972e+06
6.726287e+01 3.576017e+06 4.895271e+06
6.861115e+01 3.388983e+06 4.632285e+06
6.998645e+01 3.213253e+06 4.389429e+06
7.138933e+01 3.039969e+06 4.150595e+06
7.282032e+01 2.884613e+06 3.930409e+06
7.428000e+01 2.736048e+06 3.717557e+06
7.576894e+01 2.597319e+06 3.517354e+06
7.728772e+01 2.465632e+06 3.331307e+06
7.883694e+01 2.334902e+06 3.151993e+06
8.041722e+01 2.214345e+06 2.983120e+06
8.202918e+01 2.100904e+06 2.822835e+06
8.367345e+01 1.993451e+06 2.670082e+06
8.535068e+01 1.892155e+06 2.526644e+06
8.706153e+01 1.795257e+06 2.391655e+06
8.880667e+01 1.703290e+06 2.265217e+06
9.058679e+01 1.615238e+06 2.142342e+06
9.240260e+01 1.530324e+06 2.027951e+06
9.425480e+01 1.449746e+06 1.920235e+06
9.614413e+01 1.373685e+06 1.818343e+06
9.807133e+01 1.302215e+06 1.719226e+06
1.000372e+02 1.233844e+06 1.625852e+06
1.020424e+02 1.168204e+06 1.536984e+06
1.040878e+02 1.106791e+06 1.455893e+06
1.061743e+02 1.048319e+06 1.378584e+06
1.083025e+02 9.929075e+05 1.304444e+06
1.104734e+02 9.408395e+05 1.235747e+06
1.126879e+02 8.904190e+05 1.168463e+06
1.149467e+02 8.430699e+05 1.106183e+06
1.172508e+02 7.982780e+05 1.045939e+06
1.196011e+02 7.558852e+05 9.900611e+05
1.219985e+02 7.157570e+05 9.372246e+05
1.244439e+02 6.780053e+05 8.870992e+05
1.269384e+02 6.427056e+05 8.397658e+05
1.294828e+02 6.095982e+05 7.947497e+05
1.320783e+02 5.781207e+05 7.527567e+05
1.347258e+02 5.476639e+05 7.130999e+05
1.374264e+02 5.188197e+05 6.756849e+05
1.401811e+02 4.914828e+05 6.394672e+05
1.429910e+02 4.653396e+05 6.052123e+05
1.458573e+02 4.410621e+05 5.734439e+05
1.487810e+02 4.174366e+05 5.429322e+05
1.517633e+02 3.953051e+05 5.144558e+05
1.548053e+02 3.746044e+05 4.876114e+05
1.579084e+02 3.550324e+05 4.620201e+05
1.610737e+02 3.360836e+05 4.373569e+05
1.643024e+02 3.186191e+05 4.135923e+05
1.675958e+02 3.017634e+05 3.916316e+05
1.709552e+02 2.854273e+05 3.709072e+05
1.743820e+02 2.702986e+05 3.511905e+05
1.778775e+02 2.561457e+05 3.326618e+05
1.814430e+02 2.423244e+05 3.148058e+05
1.850801e+02 2.295906e+05 2.978916e+05
1.887900e+02 2.172422e+05 2.819419e+05
1.925743e+02 2.055263e+05 2.669008e+05
1.964344e+02 1.944414e+05 2.526243e+05
2.003719e+02 1.840534e+05 2.391533e+05
2.043883e+02 1.741572e+05 2.263820e+05
2.084853e+02 1.648827e+05 2.146235e+05
2.126644e+02 1.560374e+05 2.034039e+05
2.169272e+02 1.475640e+05 1.926632e+05
2.212755e+02 1.395940e+05 1.826451e+05
2.257109e+02 1.321382e+05 1.729970e+05
2.302353e+02 1.250495e+05 1.637906e+05
2.348503e+02 1.182876e+05 1.550765e+05
2.395579e+02 1.118565e+05 1.468738e+05
2.443598e+02 1.059065e+05 1.393342e+05
2.492580e+02 1.002562e+05 1.320278e+05
2.542544e+02 9.491424e+04 1.250372e+05
2.593509e+02 8.987251e+04 1.184741e+05
2.645495e+02 8.493196e+04 1.123754e+05
2.698524e+02 8.026588e+04 1.063460e+05
2.752616e+02 7.583490e+04 1.006971e+05
2.807792e+02 7.187360e+04 9.544246e+04
2.864074e+02 6.795907e+04 9.036238e+04
2.921484e+02 6.429408e+04 8.563203e+04
2.980045e+02 6.076408e+04 8.110688e+04
3.039780e+02 5.750934e+04 7.688537e+04
3.100712e+02 5.437654e+04 7.288536e+04
3.162865e+02 5.140203e+04 6.907761e+04
3.226265e+02 4.859818e+04 6.535502e+04
3.290935e+02 4.597093e+04 6.183580e+04
3.356901e+02 4.346827e+04 5.857383e+04
3.424190e+02 4.110272e+04 5.549879e+04
3.492828e+02 3.886952e+04 5.260480e+04
3.562841e+02 3.676078e+04 4.984298e+04
3.634258e+02 3.473886e+04 4.722468e+04
3.707107e+02 3.285639e+04 4.474358e+04
3.781415e+02 3.108939e+04 4.238208e+04
3.857213e+02 2.939275e+04 4.012202e+04
3.934531e+02 2.782397e+04 3.802690e+04
4.013398e+02 2.631119e+04 3.603322e+04
4.093847e+02 2.488712e+04 3.416864e+04
4.175907e+02 2.351452e+04 3.239784e+04
4.259613e+02 2.224485e+04 3.071418e+04
4.344997e+02 2.104149e+04 2.909148e+04
4.432092e+02 1.990687e+04 2.759671e+04
4.520933e+02 1.885428e+04 2.617276e+04
4.611555e+02 1.786295e+04 2.482092e+04
4.703993e+02 1.687231e+04 2.352353e+04
4.798284e+02 1.597893e+04 2.230541e+04
4.894465e+02 1.513213e+04 2.115545e+04
4.992574e+02 1.432244e+04 2.005635e+04
5.092650e+02 1.355981e+04 1.901948e+04
5.194732e+02 1.286885e+04 1.803358e+04
5.298860e+02 1.214855e+04 1.708561e+04
5.405075e+02 1.148466e+04 1.620266e+04
5.513420e+02 1.084911e+04 1.535876e+04
5.623936e+02 1.026243e+04 1.455919e+04
5.736667e+02 9.710480e+03 1.380183e+04
5.851658e+02 9.186069e+03 1.309158e+04
5.968954e+02 8.684143e+03 1.242997e+04
6.088601e+02 8.214701e+03 1.178514e+04
6.210647e+02 7.764479e+03 1.116202e+04
6.335139e+02 7.339791e+03 1.058884e+04
6.462126e+02 6.935858e+03 1.002976e+04
6.591659e+02 6.556326e+03 9.501056e+03
6.723788e+02 6.204827e+03 9.002034e+03
6.858566e+02 5.878916e+03 8.539156e+03
6.996046e+02 5.556235e+03 8.095571e+03
7.136281e+02 5.251310e+03 7.674870e+03
7.279327e+02 4.965108e+03 7.276472e+03
7.425240e+02 4.697712e+03 6.899827e+03
7.574079e+02 4.451906e+03 6.540171e+03
7.725901e+02 4.208423e+03 6.200637e+03
7.880766e+02 3.980033e+03 5.878940e+03
8.038735e+02 3.766709e+03 5.577050e+03
8.199871e+02 3.561551e+03 5.290276e+03
8.364237e+02 3.368021e+03 5.017045e+03
8.531897e+02 3.185148e+03 4.763279e+03
8.702918e+02 3.014998e+03 4.514313e+03
8.877368e+02 2.851551e+03 4.278198e+03
9.055314e+02 2.697005e+03 4.055853e+03
9.236827e+02 2.548831e+03 3.846665e+03
9.421978e+02 2.407946e+03 3.648548e+03
9.610841e+02 2.274825e+03 3.462806e+03
9.803490e+02 2.148625e+03 3.283374e+03
1.000000e+03 2.030834e+03 3.114468e+03
