Energy(MeV) Phi_16 Phi_84
5.000000e-02 5.251889e+11 7.400956e+11
5.100225e-02 5.147966e+11 7.241076e+11
5.202458e-02 5.047600e+11 7.080170e+11
5.306741e-02 4.948113e+11 6.930196e+11
5.413114e-02 4.850991e+11 6.780860e+11
5.521620e-02 4.755286e+11 6.631515e+11
5.632300e-02 4.660733e+11 6.484825e+11
5.745199e-02 4.568274e+11 6.341643e+11
5.860361e-02 4.477586e+11 6.204852e+11
5.977832e-02 4.388526e+11 6.072099e+11
6.097657e-02 4.303444e+11 5.943263e+11
6.219884e-02 4.219539e+11 5.816340e+11
6.344561e-02 4.135925e+11 5.691936e+11
6.471737e-02 4.055188e+11 5.570939e+11
6.601463e-02 3.975132e+11 5.452705e+11
6.733789e-02 3.897305e+11 5.334185e+11
6.868767e-02 3.819964e+11 5.216683e+11
7.006451e-02 3.745669e+11 5.104350e+11
7.146895e-02 3.672110e+11 4.998221e+11
7.290154e-02 3.595413e+11 4.891311e+11
7.436284e-02 3.525262e+11 4.788725e+11
7.585344e-02 3.451719e+11 4.679283e+11
7.737392e-02 3.383747e+11 4.575074e+11
7.892487e-02 3.317481e+11 4.477012e+11
8.050691e-02 3.252176e+11 4.381175e+11
8.212067e-02 3.188477e+11 4.287384e+11
8.376677e-02 3.126580e+11 4.195228e+11
8.544587e-02 3.066013e+11 4.105065e+11
8.715862e-02 3.006741e+11 4.017546e+11
8.890571e-02 2.944735e+11 3.925524e+11
9.068782e-02 2.881762e+11 3.843527e+11
9.250565e-02 2.824994e+11 3.763107e+11
9.435992e-02 2.765315e+11 3.679413e+11
9.625136e-02 2.711668e+11 3.596711e+11
9.818071e-02 2.660918e+11 3.517188e+11
1.001487e-01 2.606329e+11 3.439498e+11
1.021562e-01 2.554353e+11 3.365560e+11
1.042039e-01 2.503216e+11 3.291239e+11
1.062927e-01 2.452379e+11 3.218036e+11
1.084233e-01 2.402657e+11 3.148600e+11
1.105966e-01 2.354063e+11 3.082431e+11
1.128135e-01 2.306299e+11 3.016419e+11
1.150749e-01 2.260033e+11 2.953448e+11
1.173816e-01 2.214650e+11 2.894109e+11
1.197345e-01 2.169400e+11 2.835871e+11
1.221345e-01 2.125863e+11 2.773315e+11
1.245827e-01 2.084123e+11 2.714763e+11
1.270800e-01 2.043146e+11 2.657765e+11
1.296273e-01 2.002402e+11 2.599218e+11
1.322256e-01 1.961705e+11 2.539980e+11
1.348761e-01 1.922714e+11 2.485872e+11
1.375797e-01 1.882913e+11 2.431544e+11
1.403374e-01 1.844143e+11 2.379430e+11
1.431505e-01 1.804834e+11 2.327658e+11
1.460199e-01 1.767246e+11 2.279446e+11
1.489469e-01 1.730706e+11 2.230785e+11
1.519325e-01 1.696333e+11 2.181581e+11
1.549780e-01 1.663081e+11 2.134789e+11
1.580845e-01 1.629659e+11 2.088278e+11
1.612533e-01 1.596584e+11 2.043204e+11
1.644856e-01 1.564500e+11 1.998413e+11
1.677827e-01 1.534465e+11 1.955561e+11
1.711459e-01 1.502715e+11 1.912559e+11
1.745765e-01 1.471323e+11 1.871667e+11
1.780759e-01 1.440784e+11 1.832147e+11
1.816454e-01 1.411098e+11 1.792673e+11
1.852865e-01 1.382672e+11 1.755012e+11
1.890005e-01 1.354193e+11 1.715889e+11
1.927890e-01 1.326772e+11 1.677033e+11
1.966535e-01 1.301102e+11 1.642604e+11
2.005954e-01 1.275447e+11 1.607227e+11
2.046163e-01 1.250113e+11 1.573420e+11
2.087178e-01 1.224921e+11 1.539560e+11
2.129015e-01 1.199812e+11 1.504402e+11
2.171691e-01 1.175583e+11 1.473348e+11
2.215223e-01 1.151253e+11 1.441398e+11
2.259627e-01 1.128241e+11 1.410288e+11
2.304921e-01 1.105786e+11 1.380616e+11
2.351123e-01 1.082887e+11 1.351476e+11
2.398251e-01 1.060609e+11 1.321669e+11
2.446324e-01 1.039392e+11 1.291745e+11
2.495360e-01 1.019501e+11 1.261900e+11
2.545379e-01 9.990784e+10 1.235869e+11
2.596401e-01 9.788146e+10 1.210934e+11
2.648446e-01 9.588768e+10 1.186357e+11
2.701534e-01 9.388380e+10 1.161672e+11
2.755686e-01 9.191746e+10 1.137048e+11
2.810923e-01 9.011419e+10 1.112228e+11
2.867268e-01 8.824111e+10 1.088335e+11
2.924742e-01 8.645725e+10 1.065566e+11
2.983368e-01 8.470752e+10 1.042514e+11
3.043170e-01 8.294530e+10 1.020204e+11
3.104170e-01 8.118262e+10 9.979869e+10
3.166393e-01 7.949530e+10 9.761586e+10
3.229863e-01 7.780986e+10 9.539426e+10
3.294605e-01 7.620697e+10 9.336784e+10
3.360645e-01 7.463550e+10 9.136018e+10
3.428009e-01 7.300761e+10 8.941146e+10
3.496723e-01 7.150411e+10 8.746525e+10
3.566815e-01 7.006720e+10 8.564033e+10
3.638311e-01 6.864417e+10 8.381176e+10
3.711241e-01 6.725080e+10 8.193526e+10
3.785633e-01 6.582071e+10 8.019350e+10
3.861515e-01 6.438675e+10 7.849206e+10
3.938919e-01 6.306179e+10 7.683582e+10
4.017874e-01 6.178204e+10 7.519334e+10
4.098412e-01 6.044141e+10 7.357305e+10
4.180565e-01 5.916278e+10 7.198353e+10
4.264364e-01 5.791422e+10 7.047021e+10
4.349843e-01 5.672709e+10 6.900191e+10
4.437035e-01 5.555333e+10 6.757384e+10
4.525975e-01 5.447154e+10 6.613347e+10
4.616698e-01 5.333561e+10 6.471914e+10
4.709239e-01 5.218386e+10 6.335630e+10
4.803635e-01 5.106237e+10 6.198447e+10
4.899924e-01 4.996208e+10 6.066209e+10
4.998143e-01 4.888122e+10 5.944895e+10
5.098330e-01 4.783060e+10 5.823875e+10
5.200526e-01 4.681564e+10 5.702294e+10
5.304770e-01 4.587741e+10 5.586186e+10
5.411103e-01 4.494296e+10 5.466789e+10
5.519569e-01 4.393889e+10 5.352063e+10
5.630208e-01 4.302512e+10 5.236886e+10
5.743065e-01 4.213475e+10 5.123040e+10
5.858184e-01 4.125212e+10 5.016496e+10
5.975611e-01 4.037543e+10 4.907865e+10
6.095392e-01 3.951940e+10 4.801836e+10
6.217573e-01 3.864478e+10 4.699809e+10
6.342204e-01 3.779691e+10 4.602278e+10
6.469333e-01 3.698645e+10 4.501793e+10
6.599011e-01 3.620718e+10 4.410427e+10
6.731287e-01 3.542353e+10 4.318309e+10
6.866215e-01 3.462592e+10 4.225855e+10
7.003848e-01 3.387889e+10 4.136055e+10
7.144240e-01 3.316296e+10 4.046319e+10
7.287445e-01 3.242016e+10 3.961512e+10
7.433522e-01 3.170545e+10 3.879346e+10
7.582526e-01 3.098243e+10 3.793972e+10
7.734517e-01 3.030850e+10 3.710344e+10
7.889555e-01 2.964561e+10 3.629724e+10
8.047701e-01 2.899278e+10 3.554322e+10
8.209016e-01 2.837491e+10 3.481463e+10
8.373565e-01 2.775167e+10 3.406599e+10
8.541413e-01 2.715501e+10 3.333344e+10
8.712625e-01 2.654854e+10 3.263639e+10
8.887268e-01 2.599201e+10 3.197865e+10
9.065413e-01 2.544512e+10 3.130456e+10
9.247129e-01 2.488885e+10 3.062580e+10
9.432487e-01 2.433700e+10 2.996486e+10
9.621560e-01 2.380007e+10 2.934582e+10
9.814423e-01 2.327805e+10 2.870252e+10
1.001115e+00 2.275852e+10 2.808412e+10
1.021183e+00 2.224807e+10 2.750411e+10
1.041652e+00 2.175274e+10 2.690835e+10
1.062532e+00 2.125533e+10 2.634386e+10
1.083830e+00 2.078316e+10 2.576074e+10
1.105556e+00 2.032313e+10 2.522904e+10
1.127716e+00 1.987013e+10 2.471420e+10
1.150321e+00 1.941638e+10 2.420496e+10
1.173379e+00 1.898500e+10 2.368629e+10
1.196900e+00 1.854951e+10 2.317682e+10
1.220892e+00 1.813313e+10 2.263990e+10
1.245364e+00 1.772096e+10 2.213876e+10
1.270327e+00 1.733612e+10 2.166264e+10
1.295791e+00 1.693721e+10 2.119311e+10
1.321765e+00 1.655338e+10 2.071322e+10
1.348260e+00 1.618567e+10 2.026536e+10
1.375286e+00 1.582281e+10 1.980890e+10
1.402853e+00 1.546244e+10 1.937654e+10
1.430973e+00 1.511824e+10 1.897727e+10
1.459657e+00 1.478493e+10 1.856077e+10
1.488916e+00 1.444744e+10 1.816608e+10
1.518761e+00 1.412505e+10 1.776442e+10
1.549204e+00 1.379985e+10 1.738563e+10
1.580258e+00 1.348735e+10 1.700452e+10
1.611934e+00 1.318958e+10 1.663003e+10
1.644245e+00 1.289959e+10 1.626634e+10
1.677204e+00 1.259969e+10 1.590590e+10
1.710823e+00 1.230160e+10 1.555631e+10
1.745117e+00 1.201321e+10 1.520953e+10
1.780097e+00 1.173709e+10 1.486388e+10
1.815779e+00 1.146300e+10 1.453215e+10
1.852176e+00 1.120093e+10 1.420534e+10
1.889303e+00 1.094908e+10 1.388958e+10
1.927174e+00 1.069447e+10 1.357608e+10
1.965804e+00 1.044767e+10 1.328038e+10
2.005209e+00 1.020415e+10 1.298325e+10
2.045403e+00 9.965161e+09 1.267611e+10
2.086403e+00 9.725258e+09 1.239934e+10
2.128224e+00 9.499980e+09 1.212804e+10
2.170885e+00 9.279202e+09 1.185776e+10
2.214400e+00 9.064754e+09 1.158555e+10
2.258787e+00 8.842474e+09 1.132045e+10
2.304064e+00 8.638368e+09 1.107533e+10
2.350249e+00 8.440492e+09 1.083512e+10
2.397360e+00 8.239984e+09 1.057934e+10
2.445415e+00 8.046791e+09 1.032670e+10
2.494433e+00 7.856778e+09 1.009279e+10
2.544434e+00 7.674778e+09 9.857447e+09
2.595437e+00 7.489868e+09 9.632259e+09
2.647462e+00 7.308351e+09 9.412082e+09
2.700530e+00 7.130939e+09 9.201016e+09
2.754662e+00 6.952423e+09 8.983680e+09
2.809879e+00 6.781948e+09 8.774128e+09
2.866203e+00 6.619989e+09 8.569805e+09
2.923656e+00 6.460559e+09 8.366970e+09
2.982260e+00 6.303008e+09 8.174953e+09
3.042039e+00 6.146755e+09 7.983159e+09
3.103017e+00 5.998261e+09 7.797953e+09
3.165216e+00 5.849785e+09 7.615687e+09
3.228663e+00 5.706106e+09 7.435768e+09
3.293381e+00 5.567773e+09 7.257832e+09
3.359397e+00 5.431461e+09 7.085546e+09
3.426736e+00 5.300593e+09 6.916632e+09
3.495424e+00 5.170263e+09 6.751183e+09
3.565490e+00 5.039832e+09 6.588648e+09
3.636960e+00 4.912430e+09 6.429167e+09
3.709862e+00 4.791282e+09 6.272977e+09
3.784226e+00 4.668017e+09 6.122087e+09
3.860081e+00 4.549564e+09 5.976344e+09
3.937456e+00 4.439779e+09 5.833548e+09
4.016382e+00 4.325701e+09 5.693644e+09
4.096890e+00 4.213744e+09 5.551531e+09
4.179012e+00 4.103757e+09 5.413448e+09
4.262780e+00 3.998242e+09 5.282842e+09
4.348227e+00 3.895424e+09 5.151167e+09
4.435387e+00 3.794969e+09 5.025225e+09
4.524294e+00 3.696826e+09 4.900819e+09
4.614983e+00 3.598504e+09 4.774990e+09
4.707490e+00 3.502254e+09 4.653045e+09
4.801851e+00 3.410182e+09 4.532076e+09
4.898104e+00 3.320990e+09 4.414735e+09
4.996286e+00 3.234362e+09 4.299791e+09
5.096436e+00 3.151986e+09 4.190455e+09
5.198594e+00 3.071994e+09 4.083685e+09
5.302799e+00 2.990972e+09 3.981945e+09
5.409093e+00 2.911417e+09 3.874845e+09
5.517518e+00 2.833264e+09 3.772647e+09
5.628116e+00 2.755993e+09 3.673351e+09
5.740932e+00 2.682093e+09 3.579719e+09
5.856008e+00 2.609507e+09 3.487982e+09
5.973391e+00 2.537324e+09 3.393984e+09
6.093127e+00 2.467725e+09 3.301871e+09
6.215264e+00 2.399349e+09 3.215007e+09
6.339848e+00 2.332586e+09 3.127890e+09
6.466930e+00 2.267441e+09 3.041054e+09
6.596559e+00 2.203862e+09 2.957003e+09
6.728787e+00 2.143142e+09 2.875757e+09
6.863665e+00 2.081865e+09 2.797104e+09
7.001246e+00 2.022272e+09 2.720527e+09
7.141586e+00 1.964462e+09 2.645163e+09
7.284738e+00 1.907492e+09 2.566325e+09
7.430760e+00 1.852767e+09 2.490725e+09
7.579709e+00 1.800114e+09 2.421771e+09
7.731644e+00 1.748666e+09 2.352085e+09
7.886624e+00 1.698901e+09 2.283374e+09
8.044711e+00 1.649181e+09 2.217897e+09
8.205967e+00 1.601392e+09 2.155426e+09
8.370455e+00 1.554651e+09 2.092579e+09
8.538240e+00 1.509444e+09 2.030033e+09
8.709388e+00 1.465515e+09 1.968612e+09
8.883967e+00 1.422627e+09 1.909016e+09
9.062045e+00 1.379353e+09 1.850665e+09
9.243693e+00 1.337795e+09 1.794026e+09
9.428983e+00 1.297599e+09 1.738884e+09
9.617986e+00 1.258512e+09 1.685278e+09
9.810778e+00 1.220611e+09 1.633256e+09
1.000743e+01 1.183231e+09 1.582952e+09
1.020803e+01 1.146287e+09 1.532363e+09
1.041265e+01 1.112018e+09 1.483641e+09
1.062137e+01 1.076495e+09 1.435956e+09
1.083428e+01 1.042471e+09 1.390092e+09
1.105145e+01 1.009439e+09 1.346564e+09
1.127297e+01 9.749748e+08 1.302415e+09
1.149894e+01 9.420535e+08 1.260029e+09
1.172944e+01 9.112447e+08 1.216987e+09
1.196455e+01 8.824862e+08 1.176351e+09
1.220438e+01 8.532713e+08 1.136610e+09
1.244902e+01 8.231622e+08 1.097871e+09
1.269856e+01 7.953533e+08 1.059869e+09
1.295310e+01 7.678187e+08 1.024156e+09
1.321274e+01 7.390029e+08 9.896761e+08
1.347759e+01 7.142959e+08 9.559768e+08
1.374775e+01 6.897753e+08 9.238556e+08
1.402332e+01 6.654666e+08 8.910058e+08
1.430442e+01 6.423249e+08 8.603897e+08
1.459115e+01 6.196300e+08 8.299972e+08
1.488362e+01 5.974198e+08 7.997492e+08
1.518197e+01 5.763663e+08 7.704151e+08
1.548629e+01 5.560002e+08 7.424184e+08
1.579671e+01 5.358913e+08 7.139447e+08
1.611335e+01 5.162563e+08 6.868266e+08
1.643634e+01 4.970923e+08 6.610269e+08
1.676581e+01 4.783139e+08 6.359795e+08
1.710188e+01 4.599838e+08 6.117047e+08
1.744468e+01 4.414463e+08 5.875211e+08
1.779436e+01 4.241731e+08 5.646360e+08
1.815105e+01 4.073587e+08 5.414933e+08
1.851488e+01 3.912847e+08 5.200350e+08
1.888601e+01 3.763565e+08 4.989304e+08
1.926458e+01 3.604436e+08 4.789724e+08
1.965074e+01 3.448714e+08 4.596253e+08
2.004464e+01 3.307412e+08 4.408310e+08
2.044643e+01 3.163483e+08 4.224574e+08
2.085628e+01 3.028734e+08 4.048347e+08
2.127434e+01 2.902725e+08 3.878933e+08
2.170078e+01 2.779203e+08 3.718978e+08
2.213577e+01 2.661550e+08 3.559106e+08
2.257948e+01 2.545474e+08 3.404027e+08
2.303209e+01 2.435643e+08 3.259046e+08
2.349376e+01 2.317382e+08 3.116361e+08
2.396469e+01 2.220311e+08 2.977656e+08
2.444506e+01 2.118580e+08 2.840648e+08
2.493506e+01 2.019088e+08 2.715130e+08
2.543488e+01 1.922849e+08 2.588742e+08
2.594472e+01 1.829369e+08 2.470525e+08
2.646478e+01 1.742844e+08 2.354302e+08
2.699527e+01 1.658342e+08 2.242781e+08
2.753639e+01 1.579774e+08 2.136183e+08
2.808835e+01 1.498205e+08 2.034905e+08
2.865138e+01 1.423840e+08 1.936612e+08
2.922570e+01 1.352249e+08 1.844121e+08
2.981152e+01 1.277237e+08 1.750889e+08
3.040909e+01 1.213848e+08 1.663133e+08
3.101864e+01 1.147401e+08 1.579920e+08
3.164041e+01 1.087219e+08 1.498615e+08
3.227464e+01 1.030895e+08 1.419718e+08
3.292158e+01 9.741675e+07 1.343709e+08
3.358149e+01 9.209696e+07 1.270229e+08
3.425463e+01 8.689784e+07 1.202201e+08
3.494126e+01 8.208683e+07 1.137697e+08
3.564165e+01 7.731799e+07 1.077185e+08
3.635609e+01 7.276000e+07 1.017531e+08
3.708484e+01 6.827028e+07 9.607902e+07
3.782820e+01 6.396813e+07 9.083746e+07
3.858647e+01 6.026344e+07 8.573879e+07
3.935993e+01 5.661940e+07 8.091274e+07
4.014890e+01 5.292627e+07 7.609016e+07
4.095368e+01 4.963123e+07 7.167308e+07
4.177459e+01 4.644521e+07 6.769568e+07
4.261196e+01 4.354704e+07 6.374700e+07
4.346611e+01 4.071229e+07 5.993205e+07
4.433739e+01 3.801029e+07 5.631828e+07
4.522613e+01 3.546801e+07 5.288727e+07
4.613268e+01 3.330780e+07 4.967242e+07
4.705741e+01 3.110152e+07 4.662257e+07
4.800067e+01 2.895285e+07 4.389567e+07
4.896284e+01 2.700461e+07 4.109161e+07
4.994430e+01 2.521093e+07 3.845888e+07
5.094543e+01 2.344009e+07 3.608523e+07
5.196662e+01 2.182963e+07 3.375953e+07
5.300829e+01 2.046145e+07 3.159817e+07
5.407084e+01 1.901686e+07 2.964813e+07
5.515468e+01 1.781202e+07 2.770443e+07
5.626026e+01 1.662207e+07 2.585772e+07
5.738799e+01 1.543923e+07 2.416554e+07
5.853833e+01 1.435895e+07 2.264488e+07
5.971172e+01 1.334512e+07 2.118038e+07
6.090864e+01 1.237587e+07 1.968812e+07
6.212955e+01 1.146188e+07 1.832966e+07
6.337493e+01 1.062816e+07 1.709674e+07
6.464528e+01 9.857695e+06 1.592808e+07
6.594109e+01 9.155355e+06 1.483672e+07
6.726287e+01 8.458953e+06 1.376603e+07
6.861115e+01 7.858097e+06 1.280531e+07
6.998645e+01 7.288620e+06 1.195210e+07
7.138933e+01 6.739741e+06 1.114217e+07
7.282032e+01 6.265573e+06 1.041150e+07
7.428000e+01 5.785774e+06 9.717480e+06
7.576894e+01 5.352779e+06 9.059652e+06
7.728772e+01 4.957935e+06 8.497308e+06
7.883694e+01 4.591327e+06 7.903467e+06
8.041722e+01 4.228598e+06 7.346247e+06
8.202918e+01 3.897448e+06 6.839117e+06
8.367345e+01 3.619256e+06 6.389399e+06
8.535068e+01 3.336896e+06 5.953161e+06
8.706153e+01 3.080832e+06 5.566118e+06
8.880667e+01 2.839811e+06 5.216098e+06
9.058679e+01 2.616704e+06 4.880600e+06
9.240260e+01 2.416716e+06 4.565686e+06
9.425480e+01 2.216336e+06 4.264722e+06
9.614413e+01 2.050801e+06 4.005124e+06
9.807133e+01 1.894515e+06 3.748244e+06
1.000372e+02 1.745614e+06 3.510548e+06
1.020424e+02 1.610919e+06 3.276474e+06
1.040878e+02 1.490059e+06 3.079559e+06
1.061743e+02 1.376597e+06 2.893904e+06
1.083025e+02 1.269271e+06 2.715914e+06
1.104734e+02 1.172908e+06 2.551999e+06
1.126879e+02 1.080008e+06 2.381800e+06
1.149467e+02 9.925493e+05 2.234403e+06
1.172508e+02 9.181287e+05 2.097094e+06
1.196011e+02 8.447125e+05 1.966658e+06
1.219985e+02 7.786236e+05 1.843141e+06
1.244439e+02 7.173035e+05 1.733168e+06
1.269384e+02 6.609009e+05 1.629386e+06
1.294828e+02 6.076204e+05 1.521912e+06
1.320783e+02 5.596321e+05 1.424534e+06
1.347258e+02 5.151581e+05 1.333101e+06
1.374264e+02 4.741447e+05 1.247761e+06
1.401811e+02 4.385287e+05 1.170615e+06
1.429910e+02 4.058268e+05 1.098016e+06
1.458573e+02 3.731080e+05 1.029872e+06
1.487810e+02 3.417854e+05 9.652040e+05
1.517633e+02 3.168436e+05 9.024084e+05
1.548053e+02 2.936812e+05 8.453527e+05
1.579084e+02 2.695629e+05 7.934928e+05
1.610737e+02 2.482995e+05 7.445690e+05
1.643024e+02 2.291092e+05 6.966901e+05
1.675958e+02 2.104148e+05 6.534875e+05
1.709552e+02 1.941958e+05 6.156228e+05
1.743820e+02 1.790794e+05 5.780151e+05
1.778775e+02 1.656827e+05 5.422981e+05
1.814430e+02 1.528763e+05 5.084454e+05
1.850801e+02 1.407224e+05 4.768186e+05
1.887900e+02 1.293539e+05 4.468888e+05
1.925743e+02 1.189814e+05 4.192719e+05
1.964344e+02 1.097571e+05 3.938760e+05
2.003719e+02 1.014407e+05 3.700612e+05
2.043883e+02 9.316860e+04 3.478861e+05
2.084853e+02 8.543573e+04 3.269520e+05
2.126644e+02 7.879131e+04 3.069126e+05
2.169272e+02 7.245817e+04 2.882197e+05
2.212755e+02 6.680611e+04 2.704452e+05
2.257109e+02 6.156039e+04 2.533182e+05
2.302353e+02 5.616328e+04 2.372003e+05
2.348503e+02 5.186422e+04 2.234097e+05
2.395579e+02 4.792534e+04 2.097108e+05
2.443598e+02 4.431215e+04 1.967515e+05
2.492580e+02 4.079838e+04 1.845934e+05
2.542544e+02 3.734452e+04 1.731868e+05
2.593509e+02 3.424645e+04 1.624326e+05
2.645495e+02 3.141946e+04 1.523168e+05
2.698524e+02 2.880380e+04 1.429236e+05
2.752616e+02 2.645213e+04 1.342352e+05
2.807792e+02 2.443276e+04 1.259896e+05
2.864074e+02 2.251763e+04 1.182072e+05
2.921484e+02 2.069248e+04 1.108139e+05
2.980045e+02 1.899457e+04 1.038606e+05
3.039780e+02 1.747140e+04 9.734376e+04
3.100712e+02 1.603826e+04 9.133516e+04
3.162865e+02 1.472265e+04 8.576275e+04
3.226265e+02 1.354562e+04 8.053052e+04
3.290935e+02 1.249323e+04 7.566570e+04
3.356901e+02 1.150432e+04 7.105179e+04
3.424190e+02 1.060943e+04 6.666277e+04
3.492828e+02 9.769469e+03 6.256133e+04
3.562841e+02 9.019515e+03 5.871237e+04
3.634258e+02 8.318744e+03 5.510035e+04
3.707107e+02 7.675416e+03 5.171067e+04
3.781415e+02 7.054873e+03 4.858340e+04
3.857213e+02 6.481833e+03 4.562887e+04
3.934531e+02 5.942815e+03 4.278785e+04
4.013398e+02 5.459263e+03 4.011973e+04
4.093847e+02 5.037528e+03 3.764668e+04
4.175907e+02 4.651709e+03 3.532439e+04
4.259613e+02 4.285979e+03 3.314407e+04
4.344997e+02 3.939612e+03 3.110777e+04
4.432092e+02 3.621230e+03 2.918027e+04
4.520933e+02 3.328573e+03 2.736741e+04
4.611555e+02 3.059562e+03 2.574868e+04
4.703993e+02 2.816609e+03 2.418961e+04
4.798284e+02 2.594573e+03 2.270770e+04
4.894465e+02 2.383924e+03 2.131666e+04
4.992574e+02 2.195071e+03 1.998728e+04
5.092650e+02 2.022244e+03 1.874064e+04
5.194732e+02 1.855008e+03 1.762878e+04
5.298860e+02 1.710222e+03 1.657706e+04
5.405075e+02 1.578560e+03 1.556913e+04
5.513420e+02 1.456045e+03 1.461786e+04
5.623936e+02 1.338963e+03 1.372477e+04
5.736667e+02 1.231369e+03 1.288629e+04
5.851658e+02 1.132992e+03 1.210160e+04
5.968954e+02 1.042717e+03 1.137819e+04
6.088601e+02 9.557885e+02 1.070971e+04
6.210647e+02 8.788127e+02 1.005985e+04
6.335139e+02 8.078290e+02 9.443857e+03
6.462126e+02 7.433477e+02 8.865597e+03
6.591659e+02 6.833983e+02 8.322302e+03
6.723788e+02 6.278818e+02 7.810195e+03
6.858566e+02 5.792160e+02 7.332797e+03
6.996046e+02 5.343197e+02 6.886248e+03
7.136281e+02 4.923440e+02 6.466924e+03
7.279327e+02 4.522609e+02 6.074361e+03
7.425240e+02 4.148269e+02 5.711645e+03
7.574079e+02 3.803634e+02 5.370620e+03
7.725901e+02 3.501379e+02 5.059487e+03
7.880766e+02 3.223213e+02 4.786593e+03
8.038735e+02 2.967228e+02 4.495454e+03
8.199871e+02 2.731843e+02 4.222049e+03
8.364237e+02 2.516368e+02 3.965298e+03
8.531897e+02 2.315567e+02 3.724186e+03
8.702918e+02 2.131836e+02 3.497758e+03
8.877368e+02 1.959716e+02 3.287307e+03
9.055314e+02 1.803780e+02 3.090726e+03
9.236827e+02 1.657244e+02 2.906746e+03
9.421978e+02 1.522605e+02 2.732976e+03
9.610841e+02 1.398944e+02 2.569615e+03
9.803490e+02 1.285327e+02 2.414774e+03
1.000000e+03 1.179124e+02 2.267647e+03
