# Energy(MeV) Fluence_Spherical_Median(cm^-2*MeV^-1)
5.000000e-02 5.781023e+11
5.083354e-02 5.656188e+11
5.168098e-02 5.534898e+11
5.254254e-02 5.416645e+11
5.341847e-02 5.300448e+11
5.430899e-02 5.186560e+11
5.521437e-02 5.074508e+11
5.613484e-02 4.966233e+11
5.707065e-02 4.859498e+11
5.802206e-02 4.755735e+11
5.898934e-02 4.654114e+11
5.997274e-02 4.555432e+11
6.097253e-02 4.458787e+11
6.198899e-02 4.364403e+11
6.302240e-02 4.271035e+11
6.407303e-02 4.180363e+11
6.514118e-02 4.090838e+11
6.622713e-02 4.003117e+11
6.733119e-02 3.916985e+11
6.845366e-02 3.832703e+11
6.959484e-02 3.750230e+11
7.075504e-02 3.670618e+11
7.193458e-02 3.591774e+11
7.313379e-02 3.514569e+11
7.435299e-02 3.439019e+11
7.559251e-02 3.363960e+11
7.685270e-02 3.292397e+11
7.813389e-02 3.221842e+11
7.943645e-02 3.151946e+11
8.076072e-02 3.083453e+11
8.210706e-02 3.018549e+11
8.347585e-02 2.953661e+11
8.486746e-02 2.890146e+11
8.628227e-02 2.827801e+11
8.772067e-02 2.767369e+11
8.918304e-02 2.708329e+11
9.066979e-02 2.650546e+11
9.218133e-02 2.593880e+11
9.371807e-02 2.538024e+11
9.528042e-02 2.482831e+11
9.686882e-02 2.429454e+11
9.848370e-02 2.379003e+11
1.001255e-01 2.328505e+11
1.017947e-01 2.277827e+11
1.034917e-01 2.227939e+11
1.052170e-01 2.180895e+11
1.069710e-01 2.134299e+11
1.087543e-01 2.088253e+11
1.105673e-01 2.043041e+11
1.124106e-01 1.998980e+11
1.142846e-01 1.955896e+11
1.161898e-01 1.914176e+11
1.181267e-01 1.872839e+11
1.200960e-01 1.832735e+11
1.220981e-01 1.793480e+11
1.241336e-01 1.755518e+11
1.262030e-01 1.717747e+11
1.283069e-01 1.681434e+11
1.304459e-01 1.645801e+11
1.326205e-01 1.609736e+11
1.348314e-01 1.574499e+11
1.370791e-01 1.540996e+11
1.393644e-01 1.507547e+11
1.416877e-01 1.476128e+11
1.440497e-01 1.444192e+11
1.464512e-01 1.412610e+11
1.488926e-01 1.382136e+11
1.513748e-01 1.352111e+11
1.538983e-01 1.323510e+11
1.564639e-01 1.295345e+11
1.590723e-01 1.267253e+11
1.617242e-01 1.239211e+11
1.644202e-01 1.212614e+11
1.671612e-01 1.185893e+11
1.699480e-01 1.160631e+11
1.727811e-01 1.135960e+11
1.756615e-01 1.112405e+11
1.785899e-01 1.089064e+11
1.815672e-01 1.065970e+11
1.845941e-01 1.043261e+11
1.876714e-01 1.020957e+11
1.908000e-01 9.984498e+10
1.939808e-01 9.771908e+10
1.972146e-01 9.571870e+10
2.005023e-01 9.363915e+10
2.038449e-01 9.160228e+10
2.072431e-01 8.966910e+10
2.106980e-01 8.770528e+10
2.142105e-01 8.583301e+10
2.177816e-01 8.397524e+10
2.214122e-01 8.214019e+10
2.251033e-01 8.036551e+10
2.288560e-01 7.865919e+10
2.326712e-01 7.699883e+10
2.365500e-01 7.532773e+10
2.404935e-01 7.375701e+10
2.445027e-01 7.215506e+10
2.485788e-01 7.062553e+10
2.527228e-01 6.911064e+10
2.569359e-01 6.760457e+10
2.612192e-01 6.613343e+10
2.655739e-01 6.469302e+10
2.700012e-01 6.328281e+10
2.745024e-01 6.191660e+10
2.790786e-01 6.058368e+10
2.837310e-01 5.930084e+10
2.884610e-01 5.804387e+10
2.932699e-01 5.678850e+10
2.981590e-01 5.554789e+10
3.031295e-01 5.437001e+10
3.081829e-01 5.317684e+10
3.133206e-01 5.198883e+10
3.185439e-01 5.085471e+10
3.238543e-01 4.976575e+10
3.292532e-01 4.866907e+10
3.347421e-01 4.760566e+10
3.403225e-01 4.658182e+10
3.459960e-01 4.558775e+10
3.517640e-01 4.458270e+10
3.576282e-01 4.361196e+10
3.635901e-01 4.268330e+10
3.696515e-01 4.174203e+10
3.758138e-01 4.081499e+10
3.820790e-01 3.994092e+10
3.884485e-01 3.906611e+10
3.949243e-01 3.822119e+10
4.015080e-01 3.740175e+10
4.082014e-01 3.659565e+10
4.150065e-01 3.578416e+10
4.219250e-01 3.499194e+10
4.289588e-01 3.420981e+10
4.361099e-01 3.346580e+10
4.433802e-01 3.274520e+10
4.507717e-01 3.204340e+10
4.582864e-01 3.135558e+10
4.659264e-01 3.067830e+10
4.736938e-01 3.001716e+10
4.815906e-01 2.937068e+10
4.896191e-01 2.872461e+10
4.977815e-01 2.809954e+10
5.060799e-01 2.749864e+10
5.145167e-01 2.690968e+10
5.230941e-01 2.633051e+10
5.318145e-01 2.574240e+10
5.406802e-01 2.517156e+10
5.496938e-01 2.462015e+10
5.588576e-01 2.409030e+10
5.681742e-01 2.356105e+10
5.776462e-01 2.303412e+10
5.872760e-01 2.252645e+10
5.970663e-01 2.203465e+10
6.070199e-01 2.155354e+10
6.171394e-01 2.108505e+10
6.274276e-01 2.062820e+10
6.378874e-01 2.018019e+10
6.485214e-01 1.974598e+10
6.593328e-01 1.931289e+10
6.703244e-01 1.889406e+10
6.814993e-01 1.848119e+10
6.928604e-01 1.807272e+10
7.044109e-01 1.767037e+10
7.161540e-01 1.728014e+10
7.280929e-01 1.690104e+10
7.402308e-01 1.652863e+10
7.525710e-01 1.615904e+10
7.651170e-01 1.579975e+10
7.778721e-01 1.545068e+10
7.908399e-01 1.511010e+10
8.040238e-01 1.477715e+10
8.174275e-01 1.444867e+10
8.310547e-01 1.412956e+10
8.449090e-01 1.381423e+10
8.589943e-01 1.351303e+10
8.733145e-01 1.321793e+10
8.878733e-01 1.292324e+10
9.026749e-01 1.264241e+10
9.177232e-01 1.237243e+10
9.330224e-01 1.209534e+10
9.485766e-01 1.182232e+10
9.643901e-01 1.155814e+10
9.804673e-01 1.129656e+10
9.968125e-01 1.105124e+10
1.013430e+00 1.080497e+10
1.030325e+00 1.056377e+10
1.047501e+00 1.032783e+10
1.064964e+00 1.009216e+10
1.082718e+00 9.869296e+09
1.100767e+00 9.650523e+09
1.119118e+00 9.434262e+09
1.137775e+00 9.225167e+09
1.156742e+00 9.017708e+09
1.176026e+00 8.813383e+09
1.195631e+00 8.614706e+09
1.215564e+00 8.427383e+09
1.235828e+00 8.240593e+09
1.256430e+00 8.052758e+09
1.277376e+00 7.872578e+09
1.298671e+00 7.695821e+09
1.320321e+00 7.523675e+09
1.342331e+00 7.354784e+09
1.364709e+00 7.188977e+09
1.387460e+00 7.028330e+09
1.410590e+00 6.867652e+09
1.434106e+00 6.714637e+09
1.458013e+00 6.566518e+09
1.482320e+00 6.420774e+09
1.507031e+00 6.276505e+09
1.532155e+00 6.134246e+09
1.557697e+00 5.996482e+09
1.583665e+00 5.863357e+09
1.610066e+00 5.733717e+09
1.636907e+00 5.602564e+09
1.664195e+00 5.474237e+09
1.691939e+00 5.349514e+09
1.720145e+00 5.229062e+09
1.748821e+00 5.110546e+09
1.777975e+00 4.993958e+09
1.807616e+00 4.878254e+09
1.837750e+00 4.766640e+09
1.868387e+00 4.655758e+09
1.899534e+00 4.550263e+09
1.931201e+00 4.444838e+09
1.963396e+00 4.344466e+09
1.996127e+00 4.244711e+09
2.029404e+00 4.145962e+09
2.063236e+00 4.051786e+09
2.097632e+00 3.959634e+09
2.132601e+00 3.869717e+09
2.168153e+00 3.781677e+09
2.204298e+00 3.693902e+09
2.241045e+00 3.606577e+09
2.278405e+00 3.522190e+09
2.316388e+00 3.439954e+09
2.355004e+00 3.361344e+09
2.394264e+00 3.284175e+09
2.434178e+00 3.208661e+09
2.474758e+00 3.133947e+09
2.516014e+00 3.060593e+09
2.557958e+00 2.989628e+09
2.600601e+00 2.920056e+09
2.643956e+00 2.850769e+09
2.688032e+00 2.783079e+09
2.732844e+00 2.716827e+09
2.778403e+00 2.652616e+09
2.824721e+00 2.590136e+09
2.871811e+00 2.528777e+09
2.919687e+00 2.469091e+09
2.968360e+00 2.410623e+09
3.017845e+00 2.353599e+09
3.068155e+00 2.297624e+09
3.119304e+00 2.242879e+09
3.171305e+00 2.189338e+09
3.224173e+00 2.136651e+09
3.277923e+00 2.085639e+09
3.332568e+00 2.035279e+09
3.388125e+00 1.985879e+09
3.444608e+00 1.937907e+09
3.502032e+00 1.891099e+09
3.560414e+00 1.845334e+09
3.619769e+00 1.800831e+09
3.680113e+00 1.756807e+09
3.741463e+00 1.713813e+09
3.803837e+00 1.671632e+09
3.867250e+00 1.630610e+09
3.931720e+00 1.590844e+09
3.997265e+00 1.551919e+09
4.063902e+00 1.513563e+09
4.131651e+00 1.475744e+09
4.200529e+00 1.439261e+09
4.270555e+00 1.403106e+09
4.341748e+00 1.368303e+09
4.414129e+00 1.334373e+09
4.487716e+00 1.301116e+09
4.562530e+00 1.268418e+09
4.638591e+00 1.236472e+09
4.715920e+00 1.205260e+09
4.794538e+00 1.174544e+09
4.874467e+00 1.144899e+09
4.955728e+00 1.115625e+09
5.038344e+00 1.086907e+09
5.122337e+00 1.058916e+09
5.207731e+00 1.031964e+09
5.294548e+00 1.005188e+09
5.382812e+00 9.790793e+08
5.472548e+00 9.536969e+08
5.563780e+00 9.290645e+08
5.656532e+00 9.048919e+08
5.750831e+00 8.811646e+08
5.846702e+00 8.579166e+08
5.944171e+00 8.353917e+08
6.043265e+00 8.133042e+08
6.144012e+00 7.917662e+08
6.246437e+00 7.705445e+08
6.350570e+00 7.498397e+08
6.456439e+00 7.297386e+08
6.564073e+00 7.105248e+08
6.673502e+00 6.915005e+08
6.784754e+00 6.729622e+08
6.897862e+00 6.547178e+08
7.012854e+00 6.368724e+08
7.129764e+00 6.194917e+08
7.248623e+00 6.025484e+08
7.369464e+00 5.859366e+08
7.492318e+00 5.698004e+08
7.617221e+00 5.539914e+08
7.744207e+00 5.386686e+08
7.873309e+00 5.235968e+08
8.004563e+00 5.087540e+08
8.138006e+00 4.944545e+08
8.273673e+00 4.806677e+08
8.411601e+00 4.672925e+08
8.551830e+00 4.538960e+08
8.694395e+00 4.411526e+08
8.839338e+00 4.285485e+08
8.986697e+00 4.160367e+08
9.136512e+00 4.042881e+08
9.288825e+00 3.926013e+08
9.443677e+00 3.811648e+08
9.601111e+00 3.700652e+08
9.761169e+00 3.592915e+08
9.923896e+00 3.487098e+08
1.008933e+01 3.382952e+08
1.025753e+01 3.282192e+08
1.042853e+01 3.182991e+08
1.060239e+01 3.087707e+08
1.077914e+01 2.994358e+08
1.095883e+01 2.902412e+08
1.114153e+01 2.812293e+08
1.132726e+01 2.726731e+08
1.151610e+01 2.642395e+08
1.170808e+01 2.561070e+08
1.190326e+01 2.481905e+08
1.210170e+01 2.403917e+08
1.230345e+01 2.327901e+08
1.250855e+01 2.252320e+08
1.271708e+01 2.180114e+08
1.292909e+01 2.107676e+08
1.314462e+01 2.039023e+08
1.336375e+01 1.972203e+08
1.358654e+01 1.907116e+08
1.381304e+01 1.844230e+08
1.404331e+01 1.781548e+08
1.427743e+01 1.723089e+08
1.451544e+01 1.664692e+08
1.475743e+01 1.607841e+08
1.500344e+01 1.554096e+08
1.525356e+01 1.501243e+08
1.550785e+01 1.448766e+08
1.576638e+01 1.398344e+08
1.602922e+01 1.350477e+08
1.629644e+01 1.304021e+08
1.656811e+01 1.257775e+08
1.684432e+01 1.213171e+08
1.712513e+01 1.169815e+08
1.741061e+01 1.127441e+08
1.770086e+01 1.086852e+08
1.799595e+01 1.047899e+08
1.829596e+01 1.008693e+08
1.860097e+01 9.715919e+07
1.891106e+01 9.355542e+07
1.922632e+01 9.004417e+07
1.954684e+01 8.660172e+07
1.987270e+01 8.334727e+07
2.020400e+01 8.014784e+07
2.054081e+01 7.711011e+07
2.088324e+01 7.415385e+07
2.123138e+01 7.123501e+07
2.158533e+01 6.851324e+07
2.194517e+01 6.580865e+07
2.231102e+01 6.326240e+07
2.268296e+01 6.078194e+07
2.306110e+01 5.840772e+07
2.344555e+01 5.604695e+07
2.383641e+01 5.372776e+07
2.423378e+01 5.149565e+07
2.463777e+01 4.940893e+07
2.504851e+01 4.738522e+07
2.546608e+01 4.541103e+07
2.589062e+01 4.349676e+07
2.632224e+01 4.164943e+07
2.676105e+01 3.982877e+07
2.720718e+01 3.808139e+07
2.766075e+01 3.643119e+07
2.812188e+01 3.481342e+07
2.859069e+01 3.330258e+07
2.906732e+01 3.184628e+07
2.955189e+01 3.040634e+07
3.004455e+01 2.903605e+07
3.054541e+01 2.768608e+07
3.105463e+01 2.638478e+07
3.157234e+01 2.514196e+07
3.209867e+01 2.395597e+07
3.263378e+01 2.280148e+07
3.317781e+01 2.172576e+07
3.373092e+01 2.068792e+07
3.429324e+01 1.968465e+07
3.486493e+01 1.873976e+07
3.544616e+01 1.780298e+07
3.603708e+01 1.692848e+07
3.663784e+01 1.608215e+07
3.724862e+01 1.526936e+07
3.786959e+01 1.448567e+07
3.850090e+01 1.376178e+07
3.914275e+01 1.305832e+07
3.979529e+01 1.237428e+07
4.045871e+01 1.171217e+07
4.113318e+01 1.108219e+07
4.181891e+01 1.050096e+07
4.251606e+01 9.937904e+06
4.322484e+01 9.410267e+06
4.394543e+01 8.910389e+06
4.467804e+01 8.436609e+06
4.542286e+01 7.979735e+06
4.618009e+01 7.547990e+06
4.694995e+01 7.145690e+06
4.773264e+01 6.762239e+06
4.852839e+01 6.400908e+06
4.933739e+01 6.055248e+06
5.015989e+01 5.731445e+06
5.099609e+01 5.422677e+06
5.184624e+01 5.135946e+06
5.271056e+01 4.858814e+06
5.358928e+01 4.598329e+06
5.448266e+01 4.346940e+06
5.539093e+01 4.111891e+06
5.631434e+01 3.889702e+06
5.725315e+01 3.678891e+06
5.820760e+01 3.477787e+06
5.917797e+01 3.291709e+06
6.016451e+01 3.113570e+06
6.116750e+01 2.945061e+06
6.218721e+01 2.785913e+06
6.322392e+01 2.634884e+06
6.427792e+01 2.491013e+06
6.534948e+01 2.356937e+06
6.643891e+01 2.227837e+06
6.754650e+01 2.107294e+06
6.867256e+01 1.993302e+06
6.981738e+01 1.886443e+06
7.098129e+01 1.784982e+06
7.216461e+01 1.687991e+06
7.336765e+01 1.596890e+06
7.459075e+01 1.510397e+06
7.583423e+01 1.428082e+06
7.709845e+01 1.350673e+06
7.838375e+01 1.276208e+06
7.969047e+01 1.206862e+06
8.101897e+01 1.141392e+06
8.236962e+01 1.079475e+06
8.374279e+01 1.020565e+06
8.513885e+01 9.648916e+05
8.655818e+01 9.129004e+05
8.800117e+01 8.635199e+05
8.946822e+01 8.169293e+05
9.095973e+01 7.735137e+05
9.247610e+01 7.318706e+05
9.401775e+01 6.923199e+05
9.558510e+01 6.545430e+05
9.717858e+01 6.187357e+05
9.879863e+01 5.853816e+05
1.004457e+02 5.536175e+05
1.021202e+02 5.236060e+05
1.038226e+02 4.951087e+05
1.055534e+02 4.684970e+05
1.073131e+02 4.431501e+05
1.091021e+02 4.193574e+05
1.109209e+02 3.968723e+05
1.127700e+02 3.753430e+05
1.146500e+02 3.550008e+05
1.165613e+02 3.358502e+05
1.185045e+02 3.177207e+05
1.204800e+02 3.003731e+05
1.224885e+02 2.842292e+05
1.245305e+02 2.688071e+05
1.266066e+02 2.540893e+05
1.287172e+02 2.402394e+05
1.308630e+02 2.274029e+05
1.330446e+02 2.151533e+05
1.352626e+02 2.034922e+05
1.375175e+02 1.923810e+05
1.398100e+02 1.819478e+05
1.421408e+02 1.720794e+05
1.445104e+02 1.627540e+05
1.469195e+02 1.539412e+05
1.493687e+02 1.454979e+05
1.518588e+02 1.376781e+05
1.543904e+02 1.302878e+05
1.569642e+02 1.232064e+05
1.595810e+02 1.165369e+05
1.622413e+02 1.101811e+05
1.649460e+02 1.041415e+05
1.676958e+02 9.844827e+04
1.704914e+02 9.317763e+04
1.733336e+02 8.818448e+04
1.762232e+02 8.341389e+04
1.791610e+02 7.890975e+04
1.821478e+02 7.464231e+04
1.851843e+02 7.060994e+04
1.882715e+02 6.684333e+04
1.914101e+02 6.316986e+04
1.946011e+02 5.972143e+04
1.978453e+02 5.647627e+04
2.011435e+02 5.339016e+04
2.044967e+02 5.049517e+04
2.079058e+02 4.775355e+04
2.113718e+02 4.517766e+04
2.148955e+02 4.270736e+04
2.184780e+02 4.036805e+04
2.221202e+02 3.817937e+04
2.258231e+02 3.609468e+04
2.295878e+02 3.413553e+04
2.334152e+02 3.227387e+04
2.373064e+02 3.056028e+04
2.412625e+02 2.892072e+04
2.452846e+02 2.734526e+04
2.493736e+02 2.584589e+04
2.535309e+02 2.443355e+04
2.577575e+02 2.311435e+04
2.620545e+02 2.186514e+04
2.664231e+02 2.069254e+04
2.708646e+02 1.957358e+04
2.753802e+02 1.851164e+04
2.799710e+02 1.751787e+04
2.846383e+02 1.657864e+04
2.893835e+02 1.568422e+04
2.942077e+02 1.483363e+04
2.991124e+02 1.401658e+04
3.040988e+02 1.326394e+04
3.091684e+02 1.253861e+04
3.143225e+02 1.185353e+04
3.195625e+02 1.120766e+04
3.248899e+02 1.059848e+04
3.303060e+02 1.002090e+04
3.358125e+02 9.476629e+03
3.414108e+02 8.960063e+03
3.471024e+02 8.476030e+03
3.528888e+02 8.010991e+03
3.587718e+02 7.576452e+03
3.647528e+02 7.165798e+03
3.708335e+02 6.777969e+03
3.770156e+02 6.410256e+03
3.833007e+02 6.062356e+03
3.896907e+02 5.730186e+03
3.961871e+02 5.416982e+03
4.027919e+02 5.122525e+03
4.095068e+02 4.845348e+03
4.163336e+02 4.583055e+03
4.232742e+02 4.334338e+03
4.303305e+02 4.101898e+03
4.375044e+02 3.879492e+03
4.447980e+02 3.666772e+03
4.522131e+02 3.468036e+03
4.597519e+02 3.280695e+03
4.674163e+02 3.101941e+03
4.752085e+02 2.933650e+03
4.831306e+02 2.776926e+03
4.911848e+02 2.627197e+03
4.993733e+02 2.486095e+03
5.076982e+02 2.351047e+03
5.161619e+02 2.222057e+03
5.247668e+02 2.099777e+03
5.335151e+02 1.985042e+03
5.424092e+02 1.877880e+03
5.514516e+02 1.776983e+03
5.606447e+02 1.681464e+03
5.699911e+02 1.590226e+03
5.794933e+02 1.504131e+03
5.891539e+02 1.423360e+03
5.989756e+02 1.346558e+03
6.089610e+02 1.274253e+03
6.191129e+02 1.205274e+03
6.294340e+02 1.139119e+03
6.399271e+02 1.076877e+03
6.505952e+02 1.017605e+03
6.614412e+02 9.628578e+02
6.724679e+02 9.110266e+02
6.836785e+02 8.619850e+02
6.950760e+02 8.158994e+02
7.066635e+02 7.719535e+02
7.184441e+02 7.301451e+02
7.304211e+02 6.901720e+02
7.425979e+02 6.525742e+02
7.549776e+02 6.169872e+02
7.675636e+02 5.835428e+02
7.803595e+02 5.524483e+02
7.933688e+02 5.222294e+02
8.065948e+02 4.937658e+02
8.200414e+02 4.669276e+02
8.337122e+02 4.413848e+02
8.476108e+02 4.173767e+02
8.617412e+02 3.951801e+02
8.761071e+02 3.738047e+02
8.907125e+02 3.536443e+02
9.055614e+02 3.347965e+02
9.206578e+02 3.167649e+02
9.360059e+02 2.995907e+02
9.516099e+02 2.833873e+02
9.674740e+02 2.682206e+02
9.836026e+02 2.537406e+02
1.000000e+03 2.399678e+02
