# Energy(MeV) Phi16_Planar Phi84_Planar
5.000000e-02 1.250010e+11 1.660869e+11
5.083354e-02 1.224337e+11 1.624032e+11
5.168098e-02 1.198052e+11 1.588259e+11
5.254254e-02 1.173237e+11 1.553064e+11
5.341847e-02 1.148468e+11 1.519732e+11
5.430899e-02 1.124125e+11 1.486612e+11
5.521437e-02 1.100297e+11 1.453538e+11
5.613484e-02 1.077407e+11 1.421025e+11
5.707065e-02 1.055002e+11 1.388873e+11
5.802206e-02 1.033222e+11 1.358108e+11
5.898934e-02 1.011915e+11 1.328104e+11
5.997274e-02 9.909516e+10 1.298645e+11
6.097253e-02 9.704225e+10 1.270109e+11
6.198899e-02 9.500828e+10 1.242410e+11
6.302240e-02 9.299875e+10 1.215172e+11
6.407303e-02 9.104312e+10 1.188403e+11
6.514118e-02 8.915756e+10 1.162198e+11
6.622713e-02 8.727394e+10 1.136728e+11
6.733119e-02 8.543375e+10 1.111719e+11
6.845366e-02 8.367738e+10 1.087249e+11
6.959484e-02 8.193462e+10 1.063298e+11
7.075504e-02 8.027166e+10 1.039895e+11
7.193458e-02 7.863055e+10 1.017055e+11
7.313379e-02 7.703339e+10 9.945033e+10
7.435299e-02 7.547300e+10 9.725790e+10
7.559251e-02 7.393395e+10 9.512131e+10
7.685270e-02 7.244183e+10 9.302793e+10
7.813389e-02 7.096708e+10 9.093967e+10
7.943645e-02 6.952228e+10 8.892140e+10
8.076072e-02 6.810679e+10 8.690360e+10
8.210706e-02 6.670304e+10 8.502491e+10
8.347585e-02 6.528321e+10 8.320916e+10
8.486746e-02 6.388925e+10 8.138434e+10
8.628227e-02 6.254163e+10 7.959679e+10
8.772067e-02 6.121707e+10 7.784470e+10
8.918304e-02 5.990066e+10 7.613110e+10
9.066979e-02 5.860847e+10 7.445515e+10
9.218133e-02 5.734911e+10 7.283349e+10
9.371807e-02 5.614221e+10 7.123378e+10
9.528042e-02 5.496508e+10 6.967907e+10
9.686882e-02 5.380954e+10 6.816541e+10
9.848370e-02 5.267934e+10 6.665336e+10
1.001255e-01 5.156467e+10 6.516625e+10
1.017947e-01 5.050550e+10 6.371844e+10
1.034917e-01 4.942601e+10 6.234562e+10
1.052170e-01 4.838464e+10 6.097158e+10
1.069710e-01 4.737288e+10 5.964870e+10
1.087543e-01 4.635023e+10 5.834354e+10
1.105673e-01 4.536751e+10 5.706925e+10
1.124106e-01 4.443034e+10 5.581288e+10
1.142846e-01 4.351399e+10 5.458653e+10
1.161898e-01 4.261120e+10 5.338558e+10
1.181267e-01 4.171147e+10 5.218249e+10
1.200960e-01 4.080761e+10 5.103911e+10
1.220981e-01 3.993617e+10 4.992071e+10
1.241336e-01 3.910044e+10 4.882853e+10
1.262030e-01 3.827523e+10 4.777301e+10
1.283069e-01 3.746855e+10 4.675454e+10
1.304459e-01 3.669058e+10 4.573339e+10
1.326205e-01 3.592869e+10 4.473369e+10
1.348314e-01 3.518255e+10 4.377292e+10
1.370791e-01 3.443906e+10 4.282730e+10
1.393644e-01 3.369892e+10 4.189283e+10
1.416877e-01 3.297886e+10 4.097595e+10
1.440497e-01 3.225334e+10 4.007945e+10
1.464512e-01 3.159105e+10 3.920794e+10
1.488926e-01 3.096444e+10 3.834825e+10
1.513748e-01 3.033433e+10 3.751276e+10
1.538983e-01 2.971603e+10 3.668632e+10
1.564639e-01 2.908628e+10 3.588006e+10
1.590723e-01 2.848325e+10 3.509910e+10
1.617242e-01 2.788587e+10 3.434434e+10
1.644202e-01 2.729631e+10 3.358838e+10
1.671612e-01 2.671986e+10 3.284817e+10
1.699480e-01 2.613476e+10 3.212561e+10
1.727811e-01 2.558607e+10 3.142323e+10
1.756615e-01 2.505328e+10 3.073552e+10
1.785899e-01 2.452257e+10 3.006922e+10
1.815672e-01 2.401350e+10 2.940476e+10
1.845941e-01 2.349802e+10 2.875485e+10
1.876714e-01 2.298565e+10 2.809660e+10
1.908000e-01 2.249733e+10 2.748758e+10
1.939808e-01 2.202181e+10 2.688039e+10
1.972146e-01 2.155647e+10 2.629823e+10
2.005023e-01 2.110881e+10 2.572475e+10
2.038449e-01 2.066765e+10 2.516151e+10
2.072431e-01 2.022860e+10 2.461493e+10
2.106980e-01 1.980151e+10 2.408576e+10
2.142105e-01 1.939608e+10 2.353964e+10
2.177816e-01 1.899163e+10 2.300500e+10
2.214122e-01 1.859496e+10 2.250156e+10
2.251033e-01 1.820615e+10 2.202547e+10
2.288560e-01 1.782350e+10 2.155558e+10
2.326712e-01 1.744338e+10 2.106014e+10
2.365500e-01 1.706804e+10 2.057931e+10
2.404935e-01 1.671636e+10 2.012090e+10
2.445027e-01 1.636410e+10 1.967857e+10
2.485788e-01 1.602060e+10 1.925259e+10
2.527228e-01 1.569338e+10 1.883601e+10
2.569359e-01 1.536667e+10 1.842590e+10
2.612192e-01 1.504179e+10 1.802110e+10
2.655739e-01 1.472682e+10 1.763263e+10
2.700012e-01 1.441699e+10 1.724889e+10
2.745024e-01 1.411311e+10 1.686873e+10
2.790786e-01 1.381205e+10 1.650746e+10
2.837310e-01 1.351763e+10 1.614888e+10
2.884610e-01 1.323279e+10 1.579342e+10
2.932699e-01 1.294934e+10 1.545429e+10
2.981590e-01 1.267105e+10 1.511639e+10
3.031295e-01 1.239493e+10 1.478568e+10
3.081829e-01 1.213447e+10 1.446404e+10
3.133206e-01 1.187027e+10 1.414270e+10
3.185439e-01 1.161973e+10 1.383106e+10
3.238543e-01 1.137360e+10 1.353073e+10
3.292532e-01 1.112780e+10 1.323123e+10
3.347421e-01 1.089295e+10 1.294140e+10
3.403225e-01 1.065895e+10 1.266415e+10
3.459960e-01 1.043475e+10 1.237370e+10
3.517640e-01 1.020249e+10 1.210284e+10
3.576282e-01 9.981377e+09 1.183709e+10
3.635901e-01 9.765616e+09 1.157589e+10
3.696515e-01 9.553121e+09 1.132025e+10
3.758138e-01 9.347106e+09 1.107320e+10
3.820790e-01 9.143119e+09 1.082447e+10
3.884485e-01 8.948138e+09 1.058835e+10
3.949243e-01 8.763435e+09 1.035507e+10
4.015080e-01 8.576077e+09 1.012807e+10
4.082014e-01 8.392507e+09 9.907887e+09
4.150065e-01 8.209889e+09 9.692113e+09
4.219250e-01 8.030974e+09 9.480986e+09
4.289588e-01 7.859468e+09 9.276155e+09
4.361099e-01 7.691627e+09 9.075151e+09
4.433802e-01 7.527204e+09 8.878550e+09
4.507717e-01 7.365498e+09 8.681047e+09
4.582864e-01 7.208462e+09 8.492411e+09
4.659264e-01 7.056285e+09 8.302379e+09
4.736938e-01 6.906682e+09 8.120876e+09
4.815906e-01 6.758352e+09 7.946264e+09
4.896191e-01 6.614842e+09 7.770036e+09
4.977815e-01 6.474367e+09 7.601650e+09
5.060799e-01 6.336554e+09 7.437192e+09
5.145167e-01 6.199956e+09 7.273860e+09
5.230941e-01 6.067490e+09 7.115490e+09
5.318145e-01 5.937224e+09 6.960656e+09
5.406802e-01 5.808101e+09 6.807533e+09
5.496938e-01 5.679843e+09 6.656241e+09
5.588576e-01 5.552509e+09 6.509054e+09
5.681742e-01 5.430892e+09 6.366077e+09
5.776462e-01 5.310108e+09 6.224559e+09
5.872760e-01 5.191701e+09 6.083843e+09
5.970663e-01 5.082927e+09 5.948413e+09
6.070199e-01 4.977268e+09 5.815516e+09
6.171394e-01 4.867483e+09 5.688879e+09
6.274276e-01 4.767599e+09 5.565598e+09
6.378874e-01 4.666142e+09 5.443462e+09
6.485214e-01 4.564618e+09 5.324584e+09
6.593328e-01 4.465006e+09 5.209808e+09
6.703244e-01 4.366881e+09 5.098696e+09
6.814993e-01 4.270527e+09 4.990414e+09
6.928604e-01 4.179442e+09 4.880934e+09
7.044109e-01 4.087924e+09 4.774064e+09
7.161540e-01 3.999702e+09 4.669155e+09
7.280929e-01 3.910889e+09 4.569287e+09
7.402308e-01 3.822638e+09 4.466782e+09
7.525710e-01 3.739172e+09 4.370860e+09
7.651170e-01 3.658207e+09 4.275613e+09
7.778721e-01 3.578570e+09 4.181242e+09
7.908399e-01 3.498038e+09 4.089122e+09
8.040238e-01 3.420700e+09 3.997828e+09
8.174275e-01 3.344925e+09 3.910101e+09
8.310547e-01 3.270941e+09 3.823932e+09
8.449090e-01 3.198752e+09 3.739523e+09
8.589943e-01 3.126579e+09 3.658294e+09
8.733145e-01 3.056377e+09 3.579202e+09
8.878733e-01 2.988676e+09 3.501666e+09
9.026749e-01 2.918869e+09 3.425254e+09
9.177232e-01 2.854059e+09 3.349620e+09
9.330224e-01 2.789733e+09 3.277237e+09
9.485766e-01 2.728147e+09 3.204768e+09
9.643901e-01 2.668549e+09 3.134109e+09
9.804673e-01 2.609718e+09 3.066351e+09
9.968125e-01 2.553342e+09 3.000460e+09
1.013430e+00 2.497984e+09 2.934218e+09
1.030325e+00 2.442852e+09 2.869589e+09
1.047501e+00 2.387650e+09 2.806138e+09
1.064964e+00 2.334192e+09 2.744043e+09
1.082718e+00 2.282534e+09 2.683367e+09
1.100767e+00 2.230332e+09 2.624249e+09
1.119118e+00 2.179697e+09 2.565777e+09
1.137775e+00 2.130273e+09 2.508098e+09
1.156742e+00 2.081555e+09 2.452489e+09
1.176026e+00 2.033845e+09 2.398138e+09
1.195631e+00 1.987999e+09 2.344943e+09
1.215564e+00 1.942071e+09 2.293057e+09
1.235828e+00 1.897814e+09 2.242059e+09
1.256430e+00 1.854214e+09 2.192412e+09
1.277376e+00 1.812323e+09 2.144646e+09
1.298671e+00 1.771074e+09 2.096831e+09
1.320321e+00 1.731491e+09 2.051037e+09
1.342331e+00 1.692191e+09 2.005918e+09
1.364709e+00 1.653252e+09 1.960136e+09
1.387460e+00 1.615766e+09 1.914917e+09
1.410590e+00 1.578783e+09 1.871642e+09
1.434106e+00 1.542969e+09 1.829810e+09
1.458013e+00 1.508107e+09 1.788554e+09
1.482320e+00 1.473062e+09 1.749385e+09
1.507031e+00 1.439555e+09 1.709765e+09
1.532155e+00 1.407277e+09 1.670986e+09
1.557697e+00 1.375462e+09 1.634592e+09
1.583665e+00 1.343679e+09 1.598962e+09
1.610066e+00 1.312742e+09 1.563631e+09
1.636907e+00 1.282490e+09 1.528783e+09
1.664195e+00 1.252970e+09 1.493693e+09
1.691939e+00 1.224212e+09 1.459232e+09
1.720145e+00 1.196772e+09 1.426131e+09
1.748821e+00 1.169241e+09 1.394242e+09
1.777975e+00 1.142396e+09 1.362649e+09
1.807616e+00 1.116276e+09 1.332284e+09
1.837750e+00 1.090072e+09 1.302075e+09
1.868387e+00 1.064432e+09 1.272182e+09
1.899534e+00 1.040014e+09 1.243536e+09
1.931201e+00 1.015562e+09 1.215588e+09
1.963396e+00 9.916916e+08 1.187507e+09
1.996127e+00 9.686452e+08 1.160303e+09
2.029404e+00 9.461992e+08 1.134098e+09
2.063236e+00 9.238634e+08 1.108047e+09
2.097632e+00 9.030428e+08 1.082159e+09
2.132601e+00 8.819397e+08 1.058225e+09
2.168153e+00 8.612666e+08 1.034747e+09
2.204298e+00 8.412366e+08 1.010979e+09
2.241045e+00 8.212454e+08 9.876818e+08
2.278405e+00 8.017091e+08 9.650817e+08
2.316388e+00 7.825796e+08 9.431933e+08
2.355004e+00 7.639399e+08 9.213576e+08
2.394264e+00 7.456226e+08 9.007623e+08
2.434178e+00 7.278166e+08 8.800840e+08
2.474758e+00 7.106120e+08 8.591394e+08
2.516014e+00 6.941692e+08 8.391134e+08
2.557958e+00 6.778545e+08 8.190388e+08
2.600601e+00 6.614539e+08 7.999235e+08
2.643956e+00 6.453562e+08 7.813812e+08
2.688032e+00 6.299431e+08 7.632085e+08
2.732844e+00 6.148800e+08 7.453528e+08
2.778403e+00 6.001674e+08 7.276609e+08
2.824721e+00 5.858567e+08 7.101684e+08
2.871811e+00 5.718759e+08 6.937098e+08
2.919687e+00 5.581900e+08 6.771685e+08
2.968360e+00 5.448053e+08 6.609426e+08
3.017845e+00 5.317190e+08 6.453244e+08
3.068155e+00 5.189292e+08 6.298647e+08
3.119304e+00 5.064244e+08 6.147040e+08
3.171305e+00 4.939445e+08 5.997756e+08
3.224173e+00 4.815954e+08 5.854320e+08
3.277923e+00 4.698659e+08 5.714059e+08
3.332568e+00 4.583295e+08 5.578136e+08
3.388125e+00 4.469530e+08 5.444882e+08
3.444608e+00 4.359452e+08 5.311377e+08
3.502032e+00 4.252151e+08 5.185313e+08
3.560414e+00 4.147043e+08 5.060454e+08
3.619769e+00 4.046599e+08 4.933157e+08
3.680113e+00 3.948108e+08 4.809801e+08
3.741463e+00 3.851676e+08 4.692811e+08
3.803837e+00 3.757253e+08 4.578037e+08
3.867250e+00 3.663883e+08 4.467378e+08
3.931720e+00 3.571311e+08 4.358856e+08
3.997265e+00 3.481964e+08 4.252135e+08
4.063902e+00 3.394523e+08 4.146807e+08
4.131651e+00 3.309383e+08 4.043161e+08
4.200529e+00 3.226260e+08 3.941416e+08
4.270555e+00 3.146164e+08 3.841844e+08
4.341748e+00 3.068374e+08 3.745452e+08
4.414129e+00 2.992448e+08 3.654515e+08
4.487716e+00 2.918268e+08 3.565977e+08
4.562530e+00 2.843609e+08 3.478689e+08
4.638591e+00 2.772103e+08 3.392563e+08
4.715920e+00 2.701209e+08 3.309354e+08
4.794538e+00 2.632372e+08 3.226868e+08
4.874467e+00 2.565209e+08 3.144821e+08
4.955728e+00 2.500323e+08 3.066076e+08
5.038344e+00 2.437266e+08 2.986774e+08
5.122337e+00 2.375369e+08 2.910052e+08
5.207731e+00 2.314799e+08 2.836140e+08
5.294548e+00 2.254540e+08 2.762478e+08
5.382812e+00 2.195706e+08 2.690159e+08
5.472548e+00 2.137410e+08 2.622245e+08
5.563780e+00 2.081662e+08 2.556382e+08
5.656532e+00 2.027575e+08 2.491726e+08
5.750831e+00 1.974195e+08 2.428109e+08
5.846702e+00 1.922297e+08 2.364862e+08
5.944171e+00 1.872136e+08 2.303095e+08
6.043265e+00 1.822772e+08 2.243499e+08
6.144012e+00 1.774322e+08 2.184743e+08
6.246437e+00 1.727149e+08 2.127532e+08
6.350570e+00 1.681067e+08 2.070507e+08
6.456439e+00 1.635715e+08 2.015053e+08
6.564073e+00 1.591724e+08 1.960127e+08
6.673502e+00 1.548968e+08 1.906935e+08
6.784754e+00 1.508020e+08 1.854935e+08
6.897862e+00 1.467624e+08 1.805248e+08
7.012854e+00 1.428385e+08 1.754677e+08
7.129764e+00 1.390071e+08 1.706301e+08
7.248623e+00 1.352344e+08 1.659152e+08
7.369464e+00 1.315715e+08 1.613882e+08
7.492318e+00 1.280212e+08 1.569050e+08
7.617221e+00 1.245147e+08 1.526058e+08
7.744207e+00 1.210033e+08 1.484030e+08
7.873309e+00 1.176609e+08 1.442616e+08
8.004563e+00 1.143991e+08 1.401217e+08
8.138006e+00 1.111531e+08 1.362219e+08
8.273673e+00 1.080978e+08 1.324415e+08
8.411601e+00 1.051228e+08 1.287644e+08
8.551830e+00 1.021721e+08 1.251348e+08
8.694395e+00 9.928123e+07 1.216469e+08
8.839338e+00 9.638720e+07 1.181461e+08
8.986697e+00 9.367122e+07 1.147038e+08
9.136512e+00 9.097872e+07 1.114221e+08
9.288825e+00 8.836972e+07 1.081648e+08
9.443677e+00 8.578665e+07 1.049819e+08
9.601111e+00 8.323291e+07 1.018593e+08
9.761169e+00 8.076942e+07 9.884522e+07
9.923896e+00 7.835840e+07 9.587304e+07
1.008933e+01 7.603874e+07 9.299097e+07
1.025753e+01 7.377717e+07 9.014933e+07
1.042853e+01 7.157692e+07 8.736152e+07
1.060239e+01 6.934899e+07 8.466453e+07
1.077914e+01 6.723678e+07 8.208048e+07
1.095883e+01 6.517739e+07 7.958287e+07
1.114153e+01 6.317274e+07 7.717509e+07
1.132726e+01 6.118437e+07 7.479495e+07
1.151610e+01 5.930998e+07 7.244600e+07
1.170808e+01 5.749069e+07 7.019342e+07
1.190326e+01 5.571465e+07 6.799592e+07
1.210170e+01 5.402258e+07 6.583893e+07
1.230345e+01 5.237328e+07 6.377830e+07
1.250855e+01 5.074116e+07 6.183608e+07
1.271708e+01 4.916541e+07 5.989931e+07
1.292909e+01 4.762281e+07 5.799083e+07
1.314462e+01 4.607547e+07 5.608464e+07
1.336375e+01 4.452866e+07 5.430494e+07
1.358654e+01 4.301042e+07 5.248422e+07
1.381304e+01 4.164908e+07 5.078473e+07
1.404331e+01 4.029464e+07 4.909890e+07
1.427743e+01 3.894403e+07 4.747048e+07
1.451544e+01 3.769301e+07 4.586822e+07
1.475743e+01 3.648019e+07 4.432458e+07
1.500344e+01 3.522226e+07 4.282972e+07
1.525356e+01 3.399127e+07 4.142494e+07
1.550785e+01 3.285151e+07 4.000481e+07
1.576638e+01 3.169583e+07 3.861531e+07
1.602922e+01 3.059522e+07 3.730987e+07
1.629644e+01 2.952948e+07 3.604049e+07
1.656811e+01 2.846825e+07 3.481536e+07
1.684432e+01 2.747186e+07 3.358924e+07
1.712513e+01 2.649372e+07 3.239625e+07
1.741061e+01 2.555952e+07 3.123697e+07
1.770086e+01 2.464072e+07 3.010936e+07
1.799595e+01 2.371102e+07 2.901928e+07
1.829596e+01 2.283843e+07 2.796065e+07
1.860097e+01 2.196890e+07 2.697267e+07
1.891106e+01 2.110385e+07 2.599666e+07
1.922632e+01 2.031995e+07 2.504741e+07
1.954684e+01 1.953944e+07 2.410534e+07
1.987270e+01 1.880112e+07 2.319387e+07
2.020400e+01 1.809727e+07 2.232827e+07
2.054081e+01 1.741252e+07 2.149197e+07
2.088324e+01 1.669353e+07 2.066102e+07
2.123138e+01 1.601890e+07 1.985446e+07
2.158533e+01 1.538691e+07 1.908188e+07
2.194517e+01 1.476654e+07 1.834207e+07
2.231102e+01 1.414664e+07 1.760454e+07
2.268296e+01 1.357180e+07 1.690425e+07
2.306110e+01 1.302898e+07 1.624860e+07
2.344555e+01 1.251103e+07 1.561549e+07
2.383641e+01 1.199116e+07 1.499373e+07
2.423378e+01 1.148731e+07 1.438727e+07
2.463777e+01 1.102380e+07 1.379863e+07
2.504851e+01 1.056813e+07 1.323163e+07
2.546608e+01 1.012349e+07 1.269024e+07
2.589062e+01 9.669732e+06 1.215519e+07
2.632224e+01 9.251283e+06 1.163356e+07
2.676105e+01 8.856844e+06 1.114070e+07
2.720718e+01 8.475768e+06 1.066492e+07
2.766075e+01 8.106053e+06 1.020924e+07
2.812188e+01 7.723572e+06 9.766612e+06
2.859069e+01 7.352128e+06 9.343287e+06
2.906732e+01 7.017576e+06 8.935274e+06
2.955189e+01 6.676126e+06 8.540273e+06
3.004455e+01 6.363089e+06 8.165310e+06
3.054541e+01 6.053802e+06 7.798345e+06
3.105463e+01 5.756218e+06 7.446246e+06
3.157234e+01 5.476967e+06 7.110611e+06
3.209867e+01 5.204605e+06 6.783311e+06
3.263378e+01 4.949991e+06 6.470441e+06
3.317781e+01 4.697077e+06 6.174149e+06
3.373092e+01 4.464174e+06 5.879697e+06
3.429324e+01 4.241179e+06 5.602849e+06
3.486493e+01 4.020449e+06 5.337012e+06
3.544616e+01 3.810500e+06 5.083740e+06
3.603708e+01 3.609195e+06 4.835017e+06
3.663784e+01 3.421014e+06 4.600945e+06
3.724862e+01 3.241037e+06 4.380144e+06
3.786959e+01 3.067716e+06 4.160088e+06
3.850090e+01 2.903911e+06 3.953748e+06
3.914275e+01 2.753170e+06 3.757157e+06
3.979529e+01 2.609225e+06 3.568850e+06
4.045871e+01 2.472185e+06 3.382257e+06
4.113318e+01 2.344287e+06 3.210840e+06
4.181891e+01 2.218864e+06 3.041087e+06
4.251606e+01 2.102865e+06 2.884268e+06
4.322484e+01 1.993903e+06 2.730600e+06
4.394543e+01 1.889134e+06 2.592176e+06
4.467804e+01 1.789315e+06 2.458281e+06
4.542286e+01 1.694638e+06 2.326644e+06
4.618009e+01 1.605741e+06 2.201259e+06
4.694995e+01 1.522160e+06 2.084057e+06
4.773264e+01 1.441633e+06 1.971842e+06
4.852839e+01 1.364779e+06 1.865998e+06
4.933739e+01 1.292098e+06 1.763066e+06
5.015989e+01 1.223128e+06 1.666953e+06
5.099609e+01 1.159047e+06 1.576146e+06
5.184624e+01 1.097960e+06 1.488354e+06
5.271056e+01 1.040330e+06 1.406024e+06
5.358928e+01 9.848398e+05 1.327069e+06
5.448266e+01 9.322435e+05 1.252250e+06
5.539093e+01 8.824717e+05 1.182183e+06
5.631434e+01 8.358938e+05 1.116393e+06
5.725315e+01 7.909600e+05 1.055198e+06
5.820760e+01 7.485131e+05 9.969573e+05
5.917797e+01 7.093153e+05 9.425237e+05
6.016451e+01 6.723833e+05 8.903958e+05
6.116750e+01 6.374564e+05 8.417564e+05
6.218721e+01 6.038118e+05 7.957105e+05
6.322392e+01 5.711735e+05 7.523955e+05
6.427792e+01 5.413177e+05 7.115659e+05
6.534948e+01 5.132027e+05 6.729374e+05
6.643891e+01 4.860082e+05 6.354272e+05
6.754650e+01 4.601909e+05 6.004758e+05
6.867256e+01 4.358656e+05 5.673357e+05
6.981738e+01 4.128936e+05 5.356925e+05
7.098129e+01 3.909768e+05 5.061987e+05
7.216461e+01 3.700632e+05 4.784524e+05
7.336765e+01 3.503451e+05 4.519781e+05
7.459075e+01 3.314028e+05 4.268174e+05
7.583423e+01 3.136772e+05 4.029576e+05
7.709845e+01 2.969623e+05 3.808638e+05
7.838375e+01 2.812214e+05 3.597597e+05
7.969047e+01 2.663017e+05 3.399830e+05
8.101897e+01 2.522069e+05 3.213295e+05
8.236962e+01 2.390612e+05 3.038238e+05
8.374279e+01 2.262916e+05 2.870854e+05
8.513885e+01 2.140830e+05 2.714919e+05
8.655818e+01 2.025821e+05 2.563159e+05
8.800117e+01 1.918367e+05 2.424725e+05
8.946822e+01 1.815328e+05 2.294277e+05
9.095973e+01 1.717635e+05 2.166729e+05
9.247610e+01 1.624569e+05 2.046838e+05
9.401775e+01 1.537250e+05 1.935172e+05
9.558510e+01 1.454493e+05 1.828627e+05
9.717858e+01 1.375957e+05 1.727879e+05
9.879863e+01 1.301660e+05 1.632013e+05
1.004457e+02 1.231711e+05 1.541958e+05
1.021202e+02 1.168087e+05 1.455617e+05
1.038226e+02 1.105436e+05 1.375612e+05
1.055534e+02 1.045939e+05 1.300568e+05
1.073131e+02 9.895133e+04 1.230426e+05
1.091021e+02 9.365924e+04 1.163260e+05
1.109209e+02 8.867709e+04 1.100206e+05
1.127700e+02 8.395742e+04 1.039757e+05
1.146500e+02 7.941542e+04 9.827647e+04
1.165613e+02 7.511864e+04 9.293594e+04
1.185045e+02 7.104774e+04 8.785979e+04
1.204800e+02 6.721103e+04 8.303272e+04
1.224885e+02 6.363140e+04 7.859486e+04
1.245305e+02 6.012933e+04 7.424810e+04
1.266066e+02 5.689627e+04 7.017028e+04
1.287172e+02 5.386019e+04 6.631138e+04
1.308630e+02 5.099212e+04 6.269823e+04
1.330446e+02 4.831655e+04 5.929399e+04
1.352626e+02 4.574857e+04 5.607445e+04
1.375175e+02 4.327588e+04 5.298213e+04
1.398100e+02 4.091202e+04 5.005524e+04
1.421408e+02 3.868235e+04 4.729242e+04
1.445104e+02 3.663659e+04 4.470973e+04
1.469195e+02 3.461580e+04 4.237171e+04
1.493687e+02 3.273812e+04 4.006005e+04
1.518588e+02 3.098434e+04 3.790115e+04
1.543904e+02 2.932630e+04 3.591212e+04
1.569642e+02 2.772227e+04 3.401860e+04
1.595810e+02 2.620158e+04 3.220091e+04
1.622413e+02 2.478733e+04 3.042636e+04
1.649460e+02 2.340679e+04 2.878514e+04
1.676958e+02 2.210909e+04 2.723680e+04
1.704914e+02 2.091930e+04 2.576124e+04
1.733336e+02 1.979023e+04 2.437339e+04
1.762232e+02 1.871982e+04 2.307730e+04
1.791610e+02 1.769764e+04 2.181701e+04
1.821478e+02 1.674508e+04 2.060470e+04
1.851843e+02 1.584116e+04 1.948723e+04
1.882715e+02 1.498271e+04 1.842966e+04
1.914101e+02 1.418154e+04 1.740838e+04
1.946011e+02 1.340171e+04 1.644408e+04
1.978453e+02 1.265798e+04 1.555827e+04
2.011435e+02 1.196321e+04 1.472646e+04
2.044967e+02 1.131371e+04 1.393517e+04
2.079058e+02 1.070364e+04 1.318118e+04
2.113718e+02 1.012529e+04 1.247000e+04
2.148955e+02 9.572478e+03 1.180567e+04
2.184780e+02 9.047874e+03 1.116754e+04
2.221202e+02 8.552064e+03 1.057239e+04
2.258231e+02 8.090431e+03 1.000490e+04
2.295878e+02 7.652131e+03 9.463527e+03
