# Energy(MeV) Phi16 Phi84
1.800000e+00 6.878413e+09 8.028047e+09
1.822942e+00 6.776076e+09 7.897339e+09
1.846177e+00 6.676330e+09 7.769733e+09
1.869708e+00 6.579693e+09 7.647652e+09
1.893539e+00 6.484939e+09 7.527137e+09
1.917674e+00 6.391987e+09 7.407111e+09
1.942116e+00 6.301111e+09 7.288927e+09
1.966870e+00 6.207876e+09 7.172075e+09
1.991940e+00 6.116373e+09 7.056674e+09
2.017328e+00 6.022808e+09 6.942430e+09
2.043041e+00 5.933272e+09 6.832220e+09
2.069081e+00 5.846712e+09 6.722934e+09
2.095453e+00 5.760047e+09 6.617172e+09
2.122162e+00 5.674103e+09 6.514380e+09
2.149210e+00 5.589114e+09 6.409830e+09
2.176604e+00 5.505682e+09 6.304935e+09
2.204346e+00 5.425013e+09 6.204568e+09
2.232442e+00 5.346248e+09 6.104429e+09
2.260897e+00 5.268707e+09 6.007153e+09
2.289714e+00 5.192537e+09 5.911137e+09
2.318898e+00 5.117342e+09 5.815585e+09
2.348454e+00 5.042850e+09 5.720652e+09
2.378387e+00 4.968446e+09 5.628385e+09
2.408702e+00 4.895701e+09 5.538005e+09
2.439402e+00 4.822917e+09 5.448339e+09
2.470495e+00 4.750708e+09 5.360872e+09
2.501983e+00 4.681297e+09 5.275359e+09
2.533873e+00 4.613137e+09 5.190053e+09
2.566169e+00 4.544707e+09 5.106367e+09
2.598877e+00 4.475538e+09 5.024540e+09
2.632002e+00 4.408364e+09 4.944432e+09
2.665549e+00 4.342428e+09 4.864667e+09
2.699523e+00 4.277407e+09 4.787215e+09
2.733931e+00 4.213700e+09 4.711159e+09
2.768777e+00 4.151011e+09 4.636241e+09
2.804067e+00 4.089181e+09 4.562197e+09
2.839808e+00 4.028068e+09 4.488454e+09
2.876003e+00 3.966308e+09 4.415383e+09
2.912660e+00 3.905489e+09 4.344951e+09
2.949784e+00 3.845890e+09 4.274634e+09
2.987382e+00 3.787381e+09 4.206008e+09
3.025458e+00 3.729501e+09 4.137331e+09
3.064020e+00 3.673355e+09 4.069623e+09
3.103074e+00 3.618546e+09 4.003281e+09
3.142625e+00 3.564534e+09 3.938887e+09
3.182680e+00 3.510104e+09 3.874089e+09
3.223246e+00 3.456442e+09 3.810204e+09
3.264329e+00 3.404169e+09 3.746969e+09
3.305936e+00 3.353459e+09 3.686000e+09
3.348072e+00 3.302053e+09 3.625695e+09
3.390746e+00 3.251913e+09 3.566561e+09
3.433964e+00 3.201793e+09 3.507364e+09
3.477733e+00 3.151657e+09 3.450007e+09
3.522059e+00 3.103085e+09 3.393950e+09
3.566951e+00 3.055974e+09 3.338403e+09
3.612415e+00 3.009721e+09 3.282952e+09
3.658458e+00 2.963681e+09 3.228249e+09
3.705088e+00 2.918362e+09 3.174730e+09
3.752312e+00 2.873600e+09 3.122046e+09
3.800138e+00 2.829539e+09 3.070810e+09
3.848574e+00 2.786415e+09 3.020081e+09
3.897627e+00 2.742973e+09 2.969885e+09
3.947306e+00 2.699916e+09 2.919915e+09
3.997617e+00 2.657900e+09 2.870893e+09
4.048570e+00 2.616565e+09 2.822980e+09
4.100173e+00 2.575352e+09 2.776299e+09
4.152433e+00 2.534577e+09 2.730804e+09
4.205359e+00 2.494137e+09 2.686151e+09
4.258959e+00 2.453792e+09 2.641108e+09
4.313243e+00 2.414866e+09 2.596119e+09
4.368219e+00 2.376798e+09 2.552823e+09
4.423896e+00 2.338548e+09 2.510856e+09
4.480282e+00 2.301762e+09 2.468106e+09
4.537387e+00 2.265585e+09 2.426976e+09
4.595219e+00 2.229533e+09 2.386697e+09
4.653789e+00 2.194066e+09 2.346859e+09
4.713105e+00 2.158476e+09 2.306564e+09
4.773178e+00 2.122985e+09 2.267965e+09
4.834016e+00 2.088392e+09 2.229879e+09
4.895629e+00 2.054581e+09 2.191565e+09
4.958028e+00 2.021253e+09 2.154476e+09
5.021222e+00 1.988480e+09 2.117898e+09
5.085222e+00 1.956130e+09 2.081896e+09
5.150037e+00 1.924359e+09 2.046994e+09
5.215678e+00 1.892676e+09 2.012334e+09
5.282156e+00 1.861199e+09 1.978323e+09
5.349482e+00 1.830750e+09 1.944756e+09
5.417665e+00 1.800462e+09 1.912115e+09
5.486718e+00 1.770450e+09 1.879492e+09
5.556650e+00 1.740883e+09 1.847176e+09
5.627475e+00 1.711459e+09 1.815728e+09
5.699201e+00 1.682944e+09 1.784535e+09
5.771842e+00 1.654924e+09 1.754274e+09
5.845409e+00 1.627840e+09 1.724515e+09
5.919913e+00 1.600286e+09 1.694718e+09
5.995368e+00 1.573888e+09 1.665027e+09
6.071783e+00 1.547357e+09 1.636206e+09
6.149173e+00 1.521710e+09 1.608239e+09
6.227549e+00 1.496489e+09 1.580323e+09
6.306925e+00 1.471382e+09 1.552691e+09
6.387311e+00 1.446034e+09 1.525580e+09
6.468723e+00 1.421342e+09 1.498725e+09
6.551172e+00 1.397392e+09 1.472333e+09
6.634672e+00 1.373449e+09 1.446785e+09
6.719236e+00 1.349572e+09 1.421570e+09
6.804878e+00 1.326575e+09 1.396548e+09
6.891612e+00 1.303599e+09 1.371965e+09
6.979451e+00 1.281168e+09 1.347938e+09
7.068410e+00 1.259354e+09 1.324049e+09
7.158503e+00 1.237222e+09 1.300606e+09
7.249744e+00 1.215359e+09 1.277562e+09
7.342148e+00 1.193827e+09 1.255090e+09
7.435729e+00 1.173033e+09 1.232750e+09
7.530504e+00 1.152159e+09 1.210611e+09
7.626486e+00 1.131739e+09 1.189076e+09
7.723692e+00 1.111880e+09 1.167979e+09
7.822136e+00 1.092083e+09 1.146997e+09
7.921836e+00 1.072649e+09 1.126402e+09
8.022806e+00 1.053442e+09 1.106212e+09
8.125063e+00 1.034848e+09 1.086408e+09
8.228624e+00 1.015912e+09 1.066951e+09
8.333504e+00 9.974506e+08 1.047651e+09
8.439722e+00 9.795051e+08 1.028632e+09
8.547293e+00 9.619569e+08 1.009691e+09
8.656235e+00 9.444797e+08 9.912993e+08
8.766566e+00 9.272460e+08 9.732490e+08
8.878303e+00 9.100924e+08 9.555399e+08
8.991464e+00 8.934228e+08 9.382361e+08
9.106067e+00 8.767724e+08 9.209425e+08
9.222132e+00 8.607656e+08 9.039267e+08
9.339675e+00 8.447538e+08 8.871331e+08
9.458717e+00 8.292986e+08 8.705456e+08
9.579276e+00 8.138634e+08 8.542133e+08
9.701372e+00 7.986146e+08 8.383893e+08
9.825023e+00 7.837948e+08 8.225519e+08
9.950251e+00 7.692249e+08 8.073062e+08
1.007708e+01 7.547841e+08 7.920121e+08
1.020552e+01 7.404635e+08 7.769998e+08
1.033559e+01 7.265381e+08 7.623544e+08
1.046733e+01 7.129033e+08 7.479989e+08
1.060074e+01 6.994439e+08 7.337792e+08
1.073586e+01 6.861503e+08 7.198890e+08
1.087270e+01 6.728673e+08 7.059610e+08
1.101128e+01 6.600869e+08 6.923893e+08
1.115162e+01 6.474604e+08 6.790754e+08
1.129376e+01 6.350207e+08 6.659443e+08
1.143771e+01 6.229543e+08 6.530379e+08
1.158349e+01 6.106312e+08 6.404104e+08
1.173113e+01 5.985395e+08 6.279130e+08
1.188066e+01 5.868938e+08 6.158136e+08
1.203208e+01 5.753298e+08 6.038272e+08
1.218544e+01 5.641115e+08 5.920061e+08
1.234076e+01 5.531083e+08 5.802451e+08
1.249805e+01 5.421392e+08 5.689008e+08
1.265735e+01 5.312539e+08 5.574254e+08
1.281868e+01 5.206060e+08 5.464315e+08
1.298206e+01 5.100811e+08 5.354029e+08
1.314753e+01 4.997735e+08 5.246568e+08
1.331510e+01 4.896218e+08 5.141254e+08
1.348482e+01 4.797741e+08 5.037357e+08
1.365669e+01 4.699581e+08 4.935434e+08
1.383076e+01 4.603822e+08 4.835040e+08
1.400704e+01 4.509894e+08 4.736385e+08
1.418557e+01 4.416861e+08 4.639566e+08
1.436638e+01 4.325311e+08 4.544091e+08
1.454949e+01 4.235118e+08 4.450762e+08
1.473493e+01 4.147072e+08 4.358967e+08
1.492274e+01 4.059641e+08 4.268363e+08
1.511294e+01 3.975977e+08 4.179687e+08
1.530557e+01 3.892449e+08 4.091336e+08
1.550065e+01 3.810277e+08 4.005238e+08
1.569822e+01 3.729662e+08 3.920735e+08
1.589831e+01 3.651200e+08 3.837982e+08
1.610095e+01 3.573083e+08 3.756702e+08
1.630616e+01 3.496374e+08 3.676369e+08
1.651400e+01 3.421254e+08 3.597478e+08
1.672448e+01 3.347510e+08 3.519576e+08
1.693765e+01 3.275491e+08 3.443243e+08
1.715354e+01 3.204192e+08 3.367997e+08
1.737217e+01 3.133879e+08 3.295249e+08
1.759359e+01 3.065145e+08 3.223069e+08
1.781784e+01 2.996953e+08 3.151900e+08
1.804494e+01 2.931274e+08 3.081923e+08
1.827494e+01 2.865722e+08 3.013604e+08
1.850787e+01 2.802158e+08 2.945933e+08
1.874377e+01 2.739451e+08 2.879674e+08
1.898267e+01 2.677699e+08 2.813831e+08
1.922462e+01 2.616765e+08 2.749826e+08
1.946965e+01 2.556660e+08 2.687783e+08
1.971781e+01 2.497729e+08 2.626588e+08
1.996913e+01 2.439941e+08 2.566517e+08
2.022365e+01 2.383114e+08 2.507483e+08
2.048142e+01 2.327580e+08 2.449780e+08
2.074247e+01 2.273421e+08 2.392653e+08
2.100685e+01 2.220142e+08 2.336624e+08
2.127460e+01 2.167778e+08 2.281656e+08
2.154576e+01 2.116697e+08 2.227635e+08
2.182038e+01 2.066146e+08 2.174516e+08
2.209850e+01 2.016895e+08 2.122397e+08
2.238016e+01 1.968072e+08 2.071115e+08
2.266542e+01 1.920501e+08 2.021482e+08
2.295430e+01 1.873390e+08 1.972442e+08
2.324688e+01 1.827176e+08 1.924199e+08
2.354318e+01 1.782192e+08 1.876894e+08
2.384325e+01 1.737727e+08 1.830687e+08
2.414715e+01 1.694674e+08 1.784948e+08
2.445493e+01 1.652518e+08 1.740283e+08
2.476663e+01 1.611608e+08 1.696540e+08
2.508230e+01 1.570980e+08 1.654203e+08
2.540199e+01 1.531091e+08 1.612687e+08
2.572576e+01 1.492261e+08 1.571360e+08
2.605366e+01 1.454284e+08 1.531168e+08
2.638573e+01 1.416750e+08 1.491494e+08
2.672204e+01 1.379602e+08 1.452895e+08
2.706263e+01 1.343211e+08 1.415549e+08
2.740757e+01 1.308332e+08 1.378931e+08
2.775690e+01 1.273357e+08 1.342981e+08
2.811069e+01 1.239258e+08 1.307553e+08
2.846898e+01 1.206644e+08 1.272872e+08
2.883184e+01 1.173819e+08 1.238775e+08
2.919932e+01 1.142632e+08 1.205147e+08
2.957149e+01 1.111531e+08 1.172464e+08
2.994841e+01 1.081074e+08 1.140606e+08
3.033012e+01 1.051000e+08 1.109386e+08
3.071671e+01 1.021517e+08 1.078880e+08
3.110821e+01 9.928616e+07 1.049080e+08
3.150471e+01 9.646585e+07 1.020084e+08
3.190627e+01 9.372581e+07 9.917796e+07
3.231294e+01 9.104356e+07 9.639071e+07
3.272479e+01 8.842410e+07 9.366523e+07
3.314190e+01 8.587045e+07 9.099019e+07
3.356432e+01 8.334548e+07 8.838636e+07
3.399212e+01 8.090517e+07 8.584155e+07
3.442538e+01 7.853563e+07 8.334869e+07
3.486416e+01 7.622991e+07 8.092211e+07
3.530853e+01 7.398948e+07 7.853870e+07
3.575857e+01 7.175313e+07 7.621816e+07
3.621434e+01 6.959008e+07 7.393645e+07
3.667592e+01 6.743578e+07 7.172539e+07
3.714338e+01 6.543105e+07 6.957733e+07
3.761681e+01 6.341393e+07 6.746330e+07
3.809626e+01 6.144035e+07 6.541985e+07
3.858183e+01 5.951516e+07 6.342090e+07
3.907359e+01 5.762686e+07 6.145574e+07
3.957161e+01 5.582702e+07 5.955590e+07
4.007598e+01 5.404523e+07 5.770391e+07
4.058679e+01 5.228408e+07 5.589170e+07
4.110410e+01 5.060524e+07 5.412421e+07
4.162800e+01 4.891981e+07 5.240337e+07
4.215858e+01 4.729162e+07 5.074348e+07
4.269593e+01 4.574734e+07 4.909839e+07
4.324012e+01 4.422503e+07 4.750961e+07
4.379126e+01 4.276958e+07 4.594934e+07
4.434941e+01 4.133692e+07 4.443521e+07
4.491468e+01 3.994218e+07 4.296822e+07
4.548715e+01 3.857317e+07 4.153711e+07
4.606692e+01 3.723276e+07 4.014616e+07
4.665408e+01 3.590153e+07 3.880076e+07
4.724873e+01 3.465878e+07 3.748665e+07
4.785095e+01 3.342868e+07 3.620124e+07
4.846085e+01 3.223695e+07 3.496185e+07
4.907852e+01 3.107733e+07 3.374779e+07
4.970407e+01 2.995772e+07 3.257395e+07
5.033759e+01 2.884699e+07 3.144049e+07
5.097918e+01 2.777564e+07 3.032940e+07
5.162895e+01 2.674208e+07 2.924149e+07
5.228701e+01 2.575215e+07 2.818825e+07
5.295345e+01 2.478349e+07 2.716887e+07
5.362838e+01 2.383379e+07 2.618611e+07
5.431192e+01 2.290174e+07 2.523759e+07
5.500417e+01 2.201006e+07 2.431419e+07
5.570524e+01 2.114268e+07 2.342021e+07
5.641525e+01 2.029285e+07 2.253243e+07
5.713431e+01 1.948319e+07 2.169217e+07
5.786253e+01 1.870586e+07 2.087695e+07
5.860004e+01 1.794966e+07 2.008555e+07
5.934694e+01 1.723081e+07 1.931883e+07
6.010337e+01 1.653158e+07 1.857646e+07
6.086943e+01 1.585960e+07 1.786490e+07
6.164526e+01 1.522264e+07 1.716091e+07
6.243098e+01 1.461152e+07 1.647781e+07
6.322671e+01 1.402314e+07 1.582292e+07
6.403259e+01 1.346402e+07 1.518887e+07
6.484874e+01 1.292887e+07 1.458143e+07
6.567529e+01 1.240641e+07 1.399475e+07
6.651237e+01 1.190320e+07 1.343174e+07
6.736013e+01 1.141861e+07 1.288363e+07
6.821869e+01 1.095112e+07 1.235731e+07
6.908819e+01 1.051243e+07 1.184749e+07
6.996877e+01 1.009120e+07 1.136332e+07
7.086058e+01 9.685447e+06 1.090279e+07
7.176376e+01 9.296087e+06 1.045939e+07
7.267845e+01 8.924333e+06 1.003101e+07
7.360479e+01 8.562081e+06 9.619539e+06
7.454294e+01 8.216947e+06 9.225638e+06
7.549305e+01 7.884151e+06 8.850554e+06
7.645527e+01 7.567720e+06 8.490413e+06
7.742976e+01 7.263249e+06 8.144691e+06
7.841666e+01 6.969124e+06 7.813643e+06
7.941615e+01 6.688792e+06 7.498588e+06
8.042837e+01 6.415958e+06 7.192504e+06
8.145350e+01 6.157995e+06 6.897686e+06
8.249169e+01 5.910487e+06 6.618569e+06
8.354311e+01 5.670481e+06 6.347151e+06
8.460794e+01 5.441850e+06 6.090703e+06
8.568633e+01 5.223285e+06 5.843139e+06
8.677847e+01 5.012480e+06 5.605318e+06
8.788454e+01 4.810311e+06 5.376677e+06
8.900470e+01 4.615277e+06 5.156461e+06
9.013913e+01 4.428936e+06 4.947900e+06
9.128803e+01 4.250054e+06 4.748574e+06
9.245157e+01 4.078730e+06 4.555496e+06
9.362994e+01 3.913425e+06 4.370235e+06
9.482333e+01 3.753830e+06 4.191544e+06
9.603193e+01 3.603042e+06 4.020715e+06
9.725594e+01 3.457982e+06 3.855942e+06
9.849554e+01 3.319108e+06 3.699933e+06
9.975095e+01 3.186105e+06 3.548801e+06
1.010224e+02 3.057546e+06 3.405223e+06
1.023100e+02 2.935122e+06 3.265891e+06
1.036140e+02 2.817125e+06 3.135046e+06
1.049346e+02 2.703450e+06 3.009400e+06
1.062721e+02 2.594747e+06 2.886812e+06
1.076266e+02 2.490244e+06 2.770612e+06
1.089984e+02 2.389284e+06 2.659135e+06
1.103877e+02 2.291186e+06 2.551890e+06
1.117947e+02 2.199903e+06 2.448974e+06
1.132196e+02 2.110396e+06 2.349390e+06
1.146627e+02 2.024378e+06 2.253840e+06
1.161241e+02 1.941983e+06 2.161918e+06
1.176042e+02 1.863713e+06 2.073980e+06
1.191032e+02 1.787095e+06 1.990502e+06
1.206213e+02 1.714106e+06 1.909256e+06
1.221587e+02 1.643844e+06 1.831388e+06
1.237157e+02 1.576546e+06 1.757220e+06
1.252925e+02 1.511456e+06 1.685850e+06
1.268895e+02 1.450916e+06 1.618551e+06
1.285068e+02 1.392199e+06 1.553339e+06
1.301447e+02 1.335317e+06 1.490625e+06
1.318035e+02 1.280817e+06 1.430501e+06
1.334835e+02 1.228569e+06 1.373201e+06
1.351848e+02 1.178940e+06 1.317763e+06
1.369079e+02 1.130955e+06 1.264701e+06
1.386529e+02 1.085576e+06 1.213304e+06
1.404201e+02 1.041038e+06 1.164069e+06
1.422099e+02 9.986344e+05 1.116621e+06
1.440225e+02 9.582354e+05 1.071054e+06
1.458582e+02 9.193540e+05 1.027477e+06
1.477172e+02 8.821444e+05 9.863971e+05
1.496000e+02 8.462572e+05 9.467262e+05
1.515068e+02 8.117757e+05 9.088788e+05
1.534379e+02 7.786991e+05 8.725913e+05
1.553935e+02 7.470426e+05 8.374494e+05
1.573742e+02 7.165855e+05 8.034027e+05
1.593800e+02 6.872760e+05 7.707490e+05
1.614115e+02 6.593970e+05 7.393284e+05
1.634688e+02 6.325309e+05 7.094451e+05
1.655523e+02 6.066267e+05 6.809540e+05
1.676624e+02 5.818258e+05 6.537135e+05
1.697994e+02 5.578183e+05 6.274889e+05
1.719636e+02 5.349675e+05 6.019954e+05
1.741555e+02 5.132607e+05 5.774929e+05
1.763752e+02 4.922596e+05 5.540241e+05
1.786233e+02 4.722090e+05 5.314923e+05
1.809000e+02 4.528896e+05 5.100446e+05
1.832057e+02 4.344108e+05 4.893076e+05
1.855408e+02 4.167629e+05 4.696661e+05
1.879056e+02 3.996551e+05 4.505419e+05
1.903007e+02 3.835090e+05 4.325573e+05
1.927262e+02 3.677044e+05 4.149981e+05
1.951826e+02 3.526861e+05 3.982402e+05
1.976704e+02 3.383081e+05 3.822196e+05
2.001899e+02 3.245065e+05 3.668442e+05
2.027415e+02 3.111729e+05 3.520729e+05
2.053256e+02 2.984709e+05 3.379158e+05
2.079426e+02 2.863841e+05 3.243241e+05
2.105930e+02 2.747009e+05 3.112701e+05
2.132772e+02 2.634961e+05 2.987662e+05
2.159956e+02 2.527643e+05 2.866588e+05
2.187486e+02 2.425257e+05 2.749571e+05
2.215367e+02 2.327226e+05 2.639357e+05
2.243604e+02 2.231777e+05 2.534413e+05
2.272201e+02 2.141003e+05 2.432759e+05
2.301162e+02 2.052374e+05 2.333636e+05
2.330492e+02 1.969321e+05 2.239128e+05
2.360196e+02 1.887965e+05 2.149069e+05
2.390278e+02 1.810971e+05 2.063154e+05
2.420744e+02 1.737238e+05 1.980715e+05
2.451599e+02 1.666331e+05 1.901522e+05
2.482846e+02 1.598791e+05 1.825348e+05
2.514492e+02 1.533414e+05 1.751821e+05
2.546542e+02 1.471468e+05 1.681419e+05
2.578999e+02 1.411189e+05 1.613935e+05
2.611871e+02 1.353576e+05 1.549061e+05
2.645161e+02 1.297877e+05 1.487357e+05
2.678876e+02 1.244703e+05 1.427951e+05
2.713020e+02 1.194068e+05 1.370831e+05
2.747600e+02 1.145058e+05 1.315264e+05
2.782620e+02 1.098441e+05 1.261906e+05
2.818087e+02 1.053328e+05 1.211067e+05
2.854006e+02 1.010314e+05 1.162607e+05
2.890383e+02 9.694754e+04 1.116486e+05
2.927223e+02 9.297123e+04 1.071793e+05
2.964533e+02 8.915531e+04 1.028637e+05
3.002318e+02 8.551649e+04 9.869202e+04
3.040585e+02 8.200798e+04 9.474930e+04
3.079340e+02 7.867816e+04 9.097948e+04
3.118588e+02 7.544767e+04 8.735608e+04
3.158337e+02 7.230604e+04 8.386768e+04
3.198593e+02 6.931709e+04 8.049759e+04
3.239362e+02 6.646163e+04 7.724840e+04
3.280650e+02 6.372979e+04 7.412667e+04
3.322464e+02 6.112171e+04 7.114338e+04
3.364812e+02 5.867082e+04 6.829944e+04
3.407699e+02 5.625604e+04 6.555883e+04
3.451133e+02 5.396172e+04 6.292931e+04
3.495121e+02 5.176492e+04 6.040157e+04
3.539669e+02 4.967596e+04 5.796432e+04
3.584785e+02 4.760110e+04 5.564009e+04
3.630476e+02 4.565349e+04 5.341982e+04
3.676749e+02 4.379242e+04 5.128814e+04
3.723612e+02 4.197710e+04 4.923558e+04
3.771073e+02 4.026753e+04 4.725336e+04
3.819138e+02 3.859993e+04 4.536327e+04
3.867816e+02 3.703176e+04 4.355355e+04
3.917114e+02 3.555562e+04 4.180994e+04
3.967041e+02 3.413833e+04 4.013775e+04
4.017604e+02 3.274892e+04 3.852767e+04
4.068812e+02 3.137808e+04 3.698375e+04
4.120672e+02 3.008485e+04 3.550434e+04
4.173194e+02 2.886020e+04 3.409054e+04
4.226384e+02 2.768567e+04 3.274099e+04
4.280253e+02 2.656525e+04 3.141971e+04
4.334808e+02 2.547689e+04 3.015995e+04
4.390059e+02 2.443292e+04 2.894802e+04
4.446014e+02 2.344763e+04 2.779878e+04
4.502682e+02 2.248362e+04 2.667790e+04
4.560072e+02 2.156123e+04 2.561105e+04
4.618194e+02 2.067136e+04 2.457493e+04
4.677057e+02 1.981879e+04 2.359128e+04
4.736670e+02 1.900138e+04 2.265149e+04
4.797042e+02 1.821787e+04 2.175430e+04
4.858185e+02 1.746489e+04 2.088185e+04
4.920106e+02 1.674401e+04 2.004691e+04
4.982817e+02 1.605005e+04 1.925027e+04
5.046327e+02 1.538931e+04 1.848407e+04
5.110646e+02 1.475621e+04 1.773648e+04
5.175786e+02 1.414701e+04 1.701454e+04
5.241755e+02 1.356604e+04 1.633467e+04
5.308566e+02 1.301338e+04 1.567883e+04
5.376228e+02 1.248163e+04 1.504482e+04
5.444752e+02 1.197252e+04 1.443746e+04
5.514150e+02 1.148539e+04 1.385523e+04
5.584432e+02 1.101815e+04 1.330059e+04
5.655610e+02 1.056666e+04 1.277075e+04
5.727696e+02 1.013196e+04 1.226203e+04
5.800700e+02 9.715518e+03 1.176835e+04
5.874635e+02 9.316859e+03 1.129699e+04
5.949511e+02 8.934656e+03 1.084536e+04
6.025343e+02 8.566972e+03 1.041178e+04
6.102141e+02 8.215258e+03 9.994871e+03
6.179917e+02 7.878676e+03 9.594551e+03
6.258686e+02 7.556381e+03 9.209853e+03
6.338458e+02 7.248660e+03 8.839592e+03
6.419246e+02 6.954079e+03 8.484216e+03
6.501065e+02 6.669077e+03 8.143760e+03
6.583926e+02 6.396636e+03 7.819010e+03
6.667844e+02 6.135596e+03 7.507096e+03
6.752831e+02 5.881798e+03 7.206607e+03
6.838901e+02 5.641799e+03 6.918145e+03
6.926068e+02 5.411902e+03 6.641230e+03
7.014347e+02 5.189730e+03 6.375400e+03
7.103750e+02 4.979353e+03 6.120209e+03
7.194293e+02 4.775420e+03 5.875234e+03
7.285991e+02 4.578671e+03 5.639926e+03
7.378856e+02 4.389553e+03 5.416861e+03
7.472906e+02 4.209025e+03 5.202620e+03
7.568154e+02 4.035965e+03 4.994216e+03
7.664616e+02 3.868732e+03 4.795964e+03
7.762308e+02 3.709227e+03 4.604541e+03
7.861245e+02 3.557409e+03 4.420642e+03
7.961443e+02 3.412449e+03 4.244783e+03
8.062918e+02 3.273522e+03 4.075311e+03
8.165687e+02 3.140251e+03 3.912027e+03
8.269765e+02 3.012405e+03 3.755201e+03
8.375170e+02 2.888583e+03 3.604573e+03
8.481918e+02 2.769202e+03 3.461749e+03
8.590027e+02 2.655163e+03 3.323634e+03
8.699514e+02 2.546914e+03 3.190754e+03
8.810396e+02 2.443079e+03 3.063008e+03
8.922692e+02 2.343477e+03 2.940267e+03
9.036419e+02 2.247935e+03 2.822444e+03
9.151595e+02 2.156289e+03 2.709343e+03
9.268240e+02 2.067817e+03 2.600774e+03
9.386371e+02 1.982762e+03 2.496483e+03
9.506008e+02 1.901216e+03 2.395850e+03
9.627170e+02 1.823405e+03 2.299221e+03
9.749876e+02 1.748801e+03 2.206459e+03
9.874146e+02 1.677276e+03 2.117655e+03
1.000000e+03 1.608799e+03 2.032668e+03
