# E(MeV) Fluence
5.000000e-02 8.269850e+11
5.100225e-02 8.063714e+11
5.202458e-02 7.863495e+11
5.306741e-02 7.664463e+11
5.413114e-02 7.473155e+11
5.521620e-02 7.286602e+11
5.632300e-02 7.110016e+11
5.745199e-02 6.932950e+11
5.860361e-02 6.752207e+11
5.977832e-02 6.576608e+11
6.097657e-02 6.405471e+11
6.219884e-02 6.245676e+11
6.344561e-02 6.081266e+11
6.471737e-02 5.927332e+11
6.601463e-02 5.774482e+11
6.733789e-02 5.625896e+11
6.868767e-02 5.480947e+11
7.006451e-02 5.340110e+11
7.146895e-02 5.199699e+11
7.290154e-02 5.061124e+11
7.436284e-02 4.926803e+11
7.585344e-02 4.800098e+11
7.737392e-02 4.677845e+11
7.892487e-02 4.561503e+11
8.050691e-02 4.446295e+11
8.212067e-02 4.334393e+11
8.376677e-02 4.224156e+11
8.544587e-02 4.118585e+11
8.715862e-02 4.012257e+11
8.890571e-02 3.907295e+11
9.068782e-02 3.810167e+11
9.250565e-02 3.708160e+11
9.435992e-02 3.613202e+11
9.625136e-02 3.519557e+11
9.818071e-02 3.431783e+11
1.001487e-01 3.343451e+11
1.021562e-01 3.256720e+11
1.042039e-01 3.170708e+11
1.062927e-01 3.089507e+11
1.084233e-01 3.009950e+11
1.105966e-01 2.934341e+11
1.128135e-01 2.860899e+11
1.150749e-01 2.785699e+11
1.173816e-01 2.715763e+11
1.197345e-01 2.644448e+11
1.221345e-01 2.579037e+11
1.245827e-01 2.514330e+11
1.270800e-01 2.452908e+11
1.296273e-01 2.388456e+11
1.322256e-01 2.326764e+11
1.348761e-01 2.266966e+11
1.375797e-01 2.210015e+11
1.403374e-01 2.153923e+11
1.431505e-01 2.098136e+11
1.460199e-01 2.042688e+11
1.489469e-01 1.989420e+11
1.519325e-01 1.938526e+11
1.549780e-01 1.889604e+11
1.580845e-01 1.839045e+11
1.612533e-01 1.791988e+11
1.644856e-01 1.745267e+11
1.677827e-01 1.700512e+11
1.711459e-01 1.657233e+11
1.745765e-01 1.615027e+11
1.780759e-01 1.573496e+11
1.816454e-01 1.532427e+11
1.852865e-01 1.492030e+11
1.890005e-01 1.453323e+11
1.927890e-01 1.415582e+11
1.966535e-01 1.378239e+11
2.005954e-01 1.341944e+11
2.046163e-01 1.306120e+11
2.087178e-01 1.272335e+11
2.129015e-01 1.238783e+11
2.171691e-01 1.208467e+11
2.215223e-01 1.177171e+11
2.259627e-01 1.147095e+11
2.304921e-01 1.118754e+11
2.351123e-01 1.089837e+11
2.398251e-01 1.061595e+11
2.446324e-01 1.033722e+11
2.495360e-01 1.007384e+11
2.545379e-01 9.805130e+10
2.596401e-01 9.554198e+10
2.648446e-01 9.300956e+10
2.701534e-01 9.059309e+10
2.755686e-01 8.820881e+10
2.810923e-01 8.587597e+10
2.867268e-01 8.366079e+10
2.924742e-01 8.141323e+10
2.983368e-01 7.926966e+10
3.043170e-01 7.722949e+10
3.104170e-01 7.525612e+10
3.166393e-01 7.335703e+10
3.229863e-01 7.144070e+10
3.294605e-01 6.957343e+10
3.360645e-01 6.778758e+10
3.428009e-01 6.605402e+10
3.496723e-01 6.433484e+10
3.566815e-01 6.260441e+10
3.638311e-01 6.094998e+10
3.711241e-01 5.932513e+10
3.785633e-01 5.778417e+10
3.861515e-01 5.625485e+10
3.938919e-01 5.477839e+10
4.017874e-01 5.335336e+10
4.098412e-01 5.199726e+10
4.180565e-01 5.065208e+10
4.264364e-01 4.931245e+10
4.349843e-01 4.800565e+10
4.437035e-01 4.676976e+10
4.525975e-01 4.554405e+10
4.616698e-01 4.428445e+10
4.709239e-01 4.310419e+10
4.803635e-01 4.196517e+10
4.899924e-01 4.085273e+10
4.998143e-01 3.976607e+10
5.098330e-01 3.870153e+10
5.200526e-01 3.769381e+10
5.304770e-01 3.671536e+10
5.411103e-01 3.571907e+10
5.519569e-01 3.475917e+10
5.630208e-01 3.384802e+10
5.743065e-01 3.292357e+10
5.858184e-01 3.202011e+10
5.975611e-01 3.117220e+10
6.095392e-01 3.035104e+10
6.217573e-01 2.956243e+10
6.342204e-01 2.877752e+10
6.469333e-01 2.798952e+10
6.599011e-01 2.721953e+10
6.731287e-01 2.649177e+10
6.866215e-01 2.577306e+10
7.003848e-01 2.507076e+10
7.144240e-01 2.438368e+10
7.287445e-01 2.372749e+10
7.433522e-01 2.308169e+10
7.582526e-01 2.246449e+10
7.734517e-01 2.184731e+10
7.889555e-01 2.125217e+10
8.047701e-01 2.068226e+10
8.209016e-01 2.012413e+10
8.373565e-01 1.956553e+10
8.541413e-01 1.902931e+10
8.712625e-01 1.853445e+10
8.887268e-01 1.803597e+10
9.065413e-01 1.754642e+10
9.247129e-01 1.705291e+10
9.432487e-01 1.657175e+10
9.621560e-01 1.611158e+10
9.814423e-01 1.566289e+10
1.001115e+00 1.523298e+10
1.021183e+00 1.480523e+10
1.041652e+00 1.438210e+10
1.062532e+00 1.398881e+10
1.083830e+00 1.360045e+10
1.105556e+00 1.321615e+10
1.127716e+00 1.285385e+10
1.150321e+00 1.250535e+10
1.173379e+00 1.214808e+10
1.196900e+00 1.181338e+10
1.220892e+00 1.148834e+10
1.245364e+00 1.115974e+10
1.270327e+00 1.084071e+10
1.295791e+00 1.053717e+10
1.321765e+00 1.024095e+10
1.348260e+00 9.954619e+09
1.375286e+00 9.669734e+09
1.402853e+00 9.392950e+09
1.430973e+00 9.117308e+09
1.459657e+00 8.854071e+09
1.488916e+00 8.594580e+09
1.518761e+00 8.354635e+09
1.549204e+00 8.116474e+09
1.580258e+00 7.880648e+09
1.611934e+00 7.653609e+09
1.644245e+00 7.426394e+09
1.677204e+00 7.209705e+09
1.710823e+00 6.993527e+09
1.745117e+00 6.780454e+09
1.780097e+00 6.575468e+09
1.815779e+00 6.376456e+09
1.852176e+00 6.182223e+09
1.889303e+00 6.002696e+09
1.927174e+00 5.827324e+09
1.965804e+00 5.654449e+09
2.005209e+00 5.476456e+09
2.045403e+00 5.308218e+09
2.086403e+00 5.144130e+09
2.128224e+00 4.979832e+09
2.170885e+00 4.822755e+09
2.214400e+00 4.671732e+09
2.258787e+00 4.532390e+09
2.304064e+00 4.389963e+09
2.350249e+00 4.262899e+09
2.397360e+00 4.125308e+09
2.445415e+00 4.002133e+09
2.494433e+00 3.871670e+09
2.544434e+00 3.753866e+09
2.595437e+00 3.638139e+09
2.647462e+00 3.523140e+09
2.700530e+00 3.416414e+09
2.754662e+00 3.301300e+09
2.809879e+00 3.192768e+09
2.866203e+00 3.088722e+09
2.923656e+00 2.987726e+09
2.982260e+00 2.889893e+09
3.042039e+00 2.795403e+09
3.103017e+00 2.707322e+09
3.165216e+00 2.619336e+09
3.228663e+00 2.533587e+09
3.293381e+00 2.446951e+09
3.359397e+00 2.362848e+09
3.426736e+00 2.280843e+09
3.495424e+00 2.203507e+09
3.565490e+00 2.132301e+09
3.636960e+00 2.059263e+09
3.709862e+00 1.987681e+09
3.784226e+00 1.919479e+09
3.860081e+00 1.849665e+09
3.937456e+00 1.789490e+09
4.016382e+00 1.728664e+09
4.096890e+00 1.668686e+09
4.179012e+00 1.610947e+09
4.262780e+00 1.557443e+09
4.348227e+00 1.503260e+09
4.435387e+00 1.448672e+09
4.524294e+00 1.394462e+09
4.614983e+00 1.343941e+09
4.707490e+00 1.300638e+09
4.801851e+00 1.255087e+09
4.898104e+00 1.210517e+09
4.996286e+00 1.164591e+09
5.096436e+00 1.121684e+09
5.198594e+00 1.078378e+09
5.302799e+00 1.036376e+09
5.409093e+00 9.970309e+08
5.517518e+00 9.607045e+08
5.628116e+00 9.278243e+08
5.740932e+00 8.944187e+08
5.856008e+00 8.602961e+08
5.973391e+00 8.275472e+08
6.093127e+00 7.938309e+08
6.215264e+00 7.643676e+08
6.339848e+00 7.391274e+08
6.466930e+00 7.135767e+08
6.596559e+00 6.891824e+08
6.728787e+00 6.641484e+08
6.863665e+00 6.393585e+08
7.001246e+00 6.170579e+08
7.141586e+00 5.925482e+08
7.284738e+00 5.695019e+08
7.430760e+00 5.488241e+08
7.579709e+00 5.259690e+08
7.731644e+00 5.032585e+08
7.886624e+00 4.830861e+08
8.044711e+00 4.652012e+08
8.205967e+00 4.490517e+08
8.370455e+00 4.295896e+08
8.538240e+00 4.121189e+08
8.709388e+00 3.939563e+08
8.883967e+00 3.785971e+08
9.062045e+00 3.652624e+08
9.243693e+00 3.518789e+08
9.428983e+00 3.395440e+08
9.617986e+00 3.269878e+08
9.810778e+00 3.148067e+08
1.000743e+01 3.029563e+08
1.020803e+01 2.906672e+08
1.041265e+01 2.787909e+08
1.062137e+01 2.678446e+08
1.083428e+01 2.562019e+08
1.105145e+01 2.458423e+08
1.127297e+01 2.368048e+08
1.149894e+01 2.277125e+08
1.172944e+01 2.184632e+08
1.196455e+01 2.094056e+08
1.220438e+01 1.998489e+08
1.244902e+01 1.919359e+08
1.269856e+01 1.840210e+08
1.295310e+01 1.762150e+08
1.321274e+01 1.686413e+08
1.347759e+01 1.613405e+08
1.374775e+01 1.548987e+08
1.402332e+01 1.481120e+08
1.430442e+01 1.411188e+08
1.459115e+01 1.341011e+08
1.488362e+01 1.274326e+08
1.518197e+01 1.214908e+08
1.548629e+01 1.152254e+08
1.579671e+01 1.093186e+08
1.611335e+01 1.035372e+08
1.643634e+01 9.797513e+07
1.676581e+01 9.280206e+07
1.710188e+01 8.812017e+07
1.744468e+01 8.331853e+07
1.779436e+01 7.886559e+07
1.815105e+01 7.472361e+07
1.851488e+01 7.070601e+07
1.888601e+01 6.688323e+07
1.926458e+01 6.356539e+07
1.965074e+01 6.027165e+07
2.004464e+01 5.711844e+07
2.044643e+01 5.418332e+07
2.085628e+01 5.165917e+07
2.127434e+01 4.909206e+07
2.170078e+01 4.657601e+07
2.213577e+01 4.418914e+07
2.257948e+01 4.194915e+07
2.303209e+01 3.981008e+07
2.349376e+01 3.773203e+07
2.396469e+01 3.576255e+07
2.444506e+01 3.389594e+07
2.493506e+01 3.209651e+07
2.543488e+01 3.039668e+07
2.594472e+01 2.878690e+07
2.646478e+01 2.726240e+07
2.699527e+01 2.583656e+07
2.753639e+01 2.455944e+07
2.808835e+01 2.334547e+07
2.865138e+01 2.218244e+07
2.922570e+01 2.103020e+07
2.981152e+01 1.993777e+07
3.040909e+01 1.890204e+07
3.101864e+01 1.793687e+07
3.164041e+01 1.702702e+07
3.227464e+01 1.616630e+07
3.292158e+01 1.536338e+07
3.358149e+01 1.460029e+07
3.425463e+01 1.386868e+07
3.494126e+01 1.313932e+07
3.564165e+01 1.245321e+07
3.635609e+01 1.177568e+07
3.708484e+01 1.113509e+07
3.782820e+01 1.052942e+07
3.858647e+01 9.963677e+06
3.935993e+01 9.448913e+06
4.014890e+01 8.965723e+06
4.095368e+01 8.485150e+06
4.177459e+01 8.010907e+06
4.261196e+01 7.579634e+06
4.346611e+01 7.187812e+06
4.433739e+01 6.807562e+06
4.522613e+01 6.442263e+06
4.613268e+01 6.096554e+06
4.705741e+01 5.772501e+06
4.800067e+01 5.469877e+06
4.896284e+01 5.187914e+06
4.994430e+01 4.920380e+06
5.094543e+01 4.658906e+06
5.196662e+01 4.396496e+06
5.300829e+01 4.151490e+06
5.407084e+01 3.937812e+06
5.515468e+01 3.735121e+06
5.626026e+01 3.542853e+06
5.738799e+01 3.360472e+06
5.853833e+01 3.186119e+06
5.971172e+01 3.016647e+06
6.090864e+01 2.856177e+06
6.212955e+01 2.704231e+06
6.337493e+01 2.560357e+06
6.464528e+01 2.422711e+06
6.594109e+01 2.290007e+06
6.726287e+01 2.164562e+06
6.861115e+01 2.045981e+06
6.998645e+01 1.933888e+06
7.138933e+01 1.827927e+06
7.282032e+01 1.722204e+06
7.428000e+01 1.622327e+06
7.576894e+01 1.528242e+06
7.728772e+01 1.442157e+06
7.883694e+01 1.365430e+06
8.041722e+01 1.288046e+06
8.202918e+01 1.214116e+06
8.367345e+01 1.142012e+06
8.535068e+01 1.072784e+06
8.706153e+01 1.005397e+06
8.880667e+01 9.454659e+05
9.058679e+01 8.895338e+05
9.240260e+01 8.398222e+05
9.425480e+01 7.928876e+05
9.614413e+01 7.485751e+05
9.807133e+01 7.039685e+05
1.000372e+02 6.595964e+05
1.020424e+02 6.181128e+05
1.040878e+02 5.829934e+05
1.061743e+02 5.499100e+05
1.083025e+02 5.189114e+05
1.104734e+02 4.896579e+05
1.126879e+02 4.614960e+05
1.149467e+02 4.343568e+05
1.172508e+02 4.097843e+05
1.196011e+02 3.860736e+05
1.219985e+02 3.630698e+05
1.244439e+02 3.410283e+05
1.269384e+02 3.206290e+05
1.294828e+02 3.013519e+05
1.320783e+02 2.831727e+05
1.347258e+02 2.655520e+05
1.374264e+02 2.493031e+05
1.401811e+02 2.341540e+05
1.429910e+02 2.201718e+05
1.458573e+02 2.066039e+05
1.487810e+02 1.942186e+05
1.517633e+02 1.828333e+05
1.548053e+02 1.719209e+05
1.579084e+02 1.619744e+05
1.610737e+02 1.519165e+05
1.643024e+02 1.421976e+05
1.675958e+02 1.334775e+05
1.709552e+02 1.249956e+05
1.743820e+02 1.170611e+05
1.778775e+02 1.098752e+05
1.814430e+02 1.031290e+05
1.850801e+02 9.679565e+04
1.887900e+02 9.084990e+04
1.925743e+02 8.510428e+04
1.964344e+02 7.962811e+04
2.003719e+02 7.450390e+04
2.043883e+02 6.970905e+04
2.084853e+02 6.504405e+04
2.126644e+02 6.062958e+04
2.169272e+02 5.675822e+04
2.212755e+02 5.316885e+04
2.257109e+02 4.955647e+04
2.302353e+02 4.636880e+04
2.348503e+02 4.342323e+04
2.395579e+02 4.060389e+04
2.443598e+02 3.803537e+04
2.492580e+02 3.566013e+04
2.542544e+02 3.352742e+04
2.593509e+02 3.167113e+04
2.645495e+02 2.994289e+04
2.698524e+02 2.815070e+04
2.752616e+02 2.655376e+04
2.807792e+02 2.497048e+04
2.864074e+02 2.337492e+04
2.921484e+02 2.190250e+04
2.980045e+02 2.047385e+04
3.039780e+02 1.907621e+04
3.100712e+02 1.780124e+04
3.162865e+02 1.677779e+04
3.226265e+02 1.583239e+04
3.290935e+02 1.482833e+04
3.356901e+02 1.384371e+04
3.424190e+02 1.292426e+04
3.492828e+02 1.209879e+04
3.562841e+02 1.139740e+04
3.634258e+02 1.075017e+04
3.707107e+02 1.014866e+04
3.781415e+02 9.490862e+03
3.857213e+02 8.897366e+03
3.934531e+02 8.340744e+03
4.013398e+02 7.809814e+03
4.093847e+02 7.313929e+03
4.175907e+02 6.870975e+03
4.259613e+02 6.474470e+03
4.344997e+02 6.059917e+03
4.432092e+02 5.671602e+03
4.520933e+02 5.308184e+03
4.611555e+02 4.968062e+03
4.703993e+02 4.649738e+03
4.798284e+02 4.360973e+03
4.894465e+02 4.089574e+03
4.992574e+02 3.826092e+03
5.092650e+02 3.573185e+03
5.194732e+02 3.336875e+03
5.298860e+02 3.116077e+03
5.405075e+02 2.909779e+03
5.513420e+02 2.717034e+03
5.623936e+02 2.536956e+03
5.736667e+02 2.368717e+03
5.851658e+02 2.211544e+03
5.968954e+02 2.064713e+03
6.088601e+02 1.927547e+03
6.210647e+02 1.799414e+03
6.335139e+02 1.679723e+03
6.462126e+02 1.567921e+03
6.591659e+02 1.463492e+03
6.723788e+02 1.365952e+03
6.858566e+02 1.274851e+03
6.996046e+02 1.194905e+03
7.136281e+02 1.124404e+03
7.279327e+02 1.058310e+03
7.425240e+02 9.971242e+02
7.574079e+02 9.383442e+02
7.725901e+02 8.759667e+02
7.880766e+02 8.176989e+02
8.038735e+02 7.632715e+02
8.199871e+02 7.124329e+02
8.364237e+02 6.649479e+02
8.531897e+02 6.205967e+02
8.702918e+02 5.766690e+02
8.877368e+02 5.357897e+02
9.055314e+02 4.977735e+02
9.236827e+02 4.631995e+02
9.421978e+02 4.314315e+02
9.610841e+02 4.030460e+02
9.803490e+02 3.765523e+02
1.000000e+03 3.506839e+02
