# Energy(MeV) Phi16 Phi84
5.000000e-02 2.072087e+11 3.544525e+11
5.100225e-02 2.033954e+11 3.464405e+11
5.202458e-02 1.997941e+11 3.386393e+11
5.306741e-02 1.962021e+11 3.305108e+11
5.413114e-02 1.919673e+11 3.229978e+11
5.521620e-02 1.883695e+11 3.154497e+11
5.632300e-02 1.851626e+11 3.079719e+11
5.745199e-02 1.818587e+11 3.005713e+11
5.860361e-02 1.782040e+11 2.934751e+11
5.977832e-02 1.751175e+11 2.868409e+11
6.097657e-02 1.714457e+11 2.799626e+11
6.219884e-02 1.685535e+11 2.739279e+11
6.344561e-02 1.655722e+11 2.677386e+11
6.471737e-02 1.626628e+11 2.615921e+11
6.601463e-02 1.594842e+11 2.556174e+11
6.733789e-02 1.562150e+11 2.496747e+11
6.868767e-02 1.534619e+11 2.441463e+11
7.006451e-02 1.504396e+11 2.391367e+11
7.146895e-02 1.472749e+11 2.338529e+11
7.290154e-02 1.443543e+11 2.284328e+11
7.436284e-02 1.418116e+11 2.233425e+11
7.585344e-02 1.393693e+11 2.179484e+11
7.737392e-02 1.365797e+11 2.130766e+11
7.892487e-02 1.340868e+11 2.084425e+11
8.050691e-02 1.314822e+11 2.039989e+11
8.212067e-02 1.285871e+11 1.996629e+11
8.376677e-02 1.259732e+11 1.954049e+11
8.544587e-02 1.236610e+11 1.907520e+11
8.715862e-02 1.212863e+11 1.865978e+11
8.890571e-02 1.189463e+11 1.825819e+11
9.068782e-02 1.163627e+11 1.782892e+11
9.250565e-02 1.139958e+11 1.746049e+11
9.435992e-02 1.117211e+11 1.705283e+11
9.625136e-02 1.096026e+11 1.667496e+11
9.818071e-02 1.076101e+11 1.627772e+11
1.001487e-01 1.056442e+11 1.591921e+11
1.021562e-01 1.032589e+11 1.554672e+11
1.042039e-01 1.015090e+11 1.519430e+11
1.062927e-01 9.975147e+10 1.485848e+11
1.084233e-01 9.774801e+10 1.449431e+11
1.105966e-01 9.598353e+10 1.416652e+11
1.128135e-01 9.392457e+10 1.384000e+11
1.150749e-01 9.194707e+10 1.351625e+11
1.173816e-01 8.997389e+10 1.321336e+11
1.197345e-01 8.825400e+10 1.293205e+11
1.221345e-01 8.651107e+10 1.265493e+11
1.245827e-01 8.457859e+10 1.236833e+11
1.270800e-01 8.285021e+10 1.206261e+11
1.296273e-01 8.128068e+10 1.179971e+11
1.322256e-01 7.958294e+10 1.153285e+11
1.348761e-01 7.782032e+10 1.126456e+11
1.375797e-01 7.609380e+10 1.101242e+11
1.403374e-01 7.438518e+10 1.076542e+11
1.431505e-01 7.271890e+10 1.052975e+11
1.460199e-01 7.108661e+10 1.028485e+11
1.489469e-01 6.959194e+10 1.003825e+11
1.519325e-01 6.797375e+10 9.801813e+10
1.549780e-01 6.638697e+10 9.590898e+10
1.580845e-01 6.488400e+10 9.376883e+10
1.612533e-01 6.341267e+10 9.161031e+10
1.644856e-01 6.200057e+10 8.943681e+10
1.677827e-01 6.067204e+10 8.746926e+10
1.711459e-01 5.945689e+10 8.554213e+10
1.745765e-01 5.810704e+10 8.363110e+10
1.780759e-01 5.686202e+10 8.173473e+10
1.816454e-01 5.558182e+10 7.994888e+10
1.852865e-01 5.446697e+10 7.804365e+10
1.890005e-01 5.316750e+10 7.616980e+10
1.927890e-01 5.199105e+10 7.435165e+10
1.966535e-01 5.083124e+10 7.260622e+10
2.005954e-01 4.956600e+10 7.091211e+10
2.046163e-01 4.848085e+10 6.929678e+10
2.087178e-01 4.730563e+10 6.769374e+10
2.129015e-01 4.614053e+10 6.612533e+10
2.171691e-01 4.514360e+10 6.458356e+10
2.215223e-01 4.400912e+10 6.299127e+10
2.259627e-01 4.291381e+10 6.144560e+10
2.304921e-01 4.195226e+10 6.005076e+10
2.351123e-01 4.105522e+10 5.858604e+10
2.398251e-01 4.007473e+10 5.721904e+10
2.446324e-01 3.901012e+10 5.587880e+10
2.495360e-01 3.806704e+10 5.459570e+10
2.545379e-01 3.718043e+10 5.329134e+10
2.596401e-01 3.621848e+10 5.206806e+10
2.648446e-01 3.533652e+10 5.083440e+10
2.701534e-01 3.441086e+10 4.962741e+10
2.755686e-01 3.347606e+10 4.846834e+10
2.810923e-01 3.256842e+10 4.735202e+10
2.867268e-01 3.170682e+10 4.624784e+10
2.924742e-01 3.089745e+10 4.519320e+10
2.983368e-01 3.004687e+10 4.413164e+10
3.043170e-01 2.924498e+10 4.301983e+10
3.104170e-01 2.844105e+10 4.197043e+10
3.166393e-01 2.766166e+10 4.099682e+10
3.229863e-01 2.691380e+10 4.004435e+10
3.294605e-01 2.620823e+10 3.909910e+10
3.360645e-01 2.553853e+10 3.818135e+10
3.428009e-01 2.489208e+10 3.726528e+10
3.496723e-01 2.422069e+10 3.634221e+10
3.566815e-01 2.349992e+10 3.542588e+10
3.638311e-01 2.281217e+10 3.457550e+10
3.711241e-01 2.213843e+10 3.375470e+10
3.785633e-01 2.151879e+10 3.299079e+10
3.861515e-01 2.091425e+10 3.217576e+10
3.938919e-01 2.032461e+10 3.138757e+10
4.017874e-01 1.971563e+10 3.065167e+10
4.098412e-01 1.917738e+10 2.992304e+10
4.180565e-01 1.858277e+10 2.918970e+10
4.264364e-01 1.805807e+10 2.845494e+10
4.349843e-01 1.754295e+10 2.774838e+10
4.437035e-01 1.694517e+10 2.705613e+10
4.525975e-01 1.645627e+10 2.638209e+10
4.616698e-01 1.595033e+10 2.573084e+10
4.709239e-01 1.551990e+10 2.510873e+10
4.803635e-01 1.501317e+10 2.446210e+10
4.899924e-01 1.457461e+10 2.384180e+10
4.998143e-01 1.409559e+10 2.323350e+10
5.098330e-01 1.366866e+10 2.263276e+10
5.200526e-01 1.328699e+10 2.202934e+10
5.304770e-01 1.284368e+10 2.145044e+10
5.411103e-01 1.240989e+10 2.089859e+10
5.519569e-01 1.194849e+10 2.034077e+10
5.630208e-01 1.155684e+10 1.982489e+10
5.743065e-01 1.121264e+10 1.930066e+10
5.858184e-01 1.087062e+10 1.879768e+10
5.975611e-01 1.052704e+10 1.831234e+10
6.095392e-01 1.022750e+10 1.780020e+10
6.217573e-01 9.913413e+09 1.732334e+10
6.342204e-01 9.597415e+09 1.686150e+10
6.469333e-01 9.255536e+09 1.638063e+10
6.599011e-01 8.934299e+09 1.593243e+10
6.731287e-01 8.679814e+09 1.549000e+10
6.866215e-01 8.382859e+09 1.506231e+10
7.003848e-01 8.118487e+09 1.464315e+10
7.144240e-01 7.868436e+09 1.424435e+10
7.287445e-01 7.572320e+09 1.383968e+10
7.433522e-01 7.322418e+09 1.344348e+10
7.582526e-01 7.082199e+09 1.304967e+10
7.734517e-01 6.846084e+09 1.267217e+10
7.889555e-01 6.625269e+09 1.230835e+10
8.047701e-01 6.407422e+09 1.195294e+10
8.209016e-01 6.195181e+09 1.161602e+10
8.373565e-01 5.941823e+09 1.127394e+10
8.541413e-01 5.715290e+09 1.093330e+10
8.712625e-01 5.525005e+09 1.061008e+10
8.887268e-01 5.353360e+09 1.029485e+10
9.065413e-01 5.185694e+09 1.000047e+10
9.247129e-01 4.996029e+09 9.688513e+09
9.432487e-01 4.842491e+09 9.396181e+09
9.621560e-01 4.676483e+09 9.112742e+09
9.814423e-01 4.536360e+09 8.839652e+09
1.001115e+00 4.400446e+09 8.574580e+09
1.021183e+00 4.264033e+09 8.316734e+09
1.041652e+00 4.129631e+09 8.064435e+09
1.062532e+00 3.978995e+09 7.817157e+09
1.083830e+00 3.847052e+09 7.572462e+09
1.105556e+00 3.688164e+09 7.330780e+09
1.127716e+00 3.563766e+09 7.098088e+09
1.150321e+00 3.414787e+09 6.872317e+09
1.173379e+00 3.261918e+09 6.652586e+09
1.196900e+00 3.151276e+09 6.429973e+09
1.220892e+00 3.044983e+09 6.217314e+09
1.245364e+00 2.936936e+09 6.014065e+09
1.270327e+00 2.791987e+09 5.813289e+09
1.295791e+00 2.650274e+09 5.618138e+09
1.321765e+00 2.533378e+09 5.426939e+09
1.348260e+00 2.409822e+09 5.247292e+09
1.375286e+00 2.303992e+09 5.072267e+09
1.402853e+00 2.206278e+09 4.897931e+09
1.430973e+00 2.132923e+09 4.724558e+09
1.459657e+00 2.029221e+09 4.554160e+09
1.488916e+00 1.932055e+09 4.398691e+09
1.518761e+00 1.860494e+09 4.244113e+09
1.549204e+00 1.782038e+09 4.087951e+09
1.580258e+00 1.693812e+09 3.938409e+09
1.611934e+00 1.622208e+09 3.794639e+09
1.644245e+00 1.564032e+09 3.657537e+09
1.677204e+00 1.490992e+09 3.521279e+09
1.710823e+00 1.437530e+09 3.390124e+09
1.745117e+00 1.387351e+09 3.266653e+09
1.780097e+00 1.338641e+09 3.146890e+09
1.815779e+00 1.277567e+09 3.031309e+09
1.852176e+00 1.215986e+09 2.916486e+09
1.889303e+00 1.166839e+09 2.803301e+09
1.927174e+00 1.118474e+09 2.695159e+09
1.965804e+00 1.063783e+09 2.592645e+09
2.005209e+00 1.013587e+09 2.491461e+09
2.045403e+00 9.662551e+08 2.391704e+09
2.086403e+00 9.221324e+08 2.293789e+09
2.128224e+00 8.862810e+08 2.199315e+09
2.170885e+00 8.471554e+08 2.109403e+09
2.214400e+00 8.103370e+08 2.019795e+09
2.258787e+00 7.768693e+08 1.932496e+09
2.304064e+00 7.387700e+08 1.851350e+09
2.350249e+00 7.078556e+08 1.772013e+09
2.397360e+00 6.749886e+08 1.696358e+09
2.445415e+00 6.420273e+08 1.618486e+09
2.494433e+00 6.114973e+08 1.545862e+09
2.544434e+00 5.853146e+08 1.480033e+09
2.595437e+00 5.605894e+08 1.416144e+09
2.647462e+00 5.351003e+08 1.349329e+09
2.700530e+00 5.128676e+08 1.290476e+09
2.754662e+00 4.884929e+08 1.233139e+09
2.809879e+00 4.651820e+08 1.174343e+09
2.866203e+00 4.429605e+08 1.119537e+09
2.923656e+00 4.236340e+08 1.064926e+09
2.982260e+00 4.047591e+08 1.011690e+09
3.042039e+00 3.866549e+08 9.636313e+08
3.103017e+00 3.693369e+08 9.177582e+08
3.165216e+00 3.523388e+08 8.721000e+08
3.228663e+00 3.356653e+08 8.282118e+08
3.293381e+00 3.207294e+08 7.874077e+08
3.359397e+00 3.063675e+08 7.488791e+08
3.426736e+00 2.916336e+08 7.113300e+08
3.495424e+00 2.772320e+08 6.752016e+08
3.565490e+00 2.635399e+08 6.408672e+08
3.636960e+00 2.505224e+08 6.089418e+08
3.709862e+00 2.381462e+08 5.779695e+08
3.784226e+00 2.263798e+08 5.486492e+08
3.860081e+00 2.151932e+08 5.198471e+08
3.937456e+00 2.045579e+08 4.932252e+08
4.016382e+00 1.945188e+08 4.681260e+08
4.096890e+00 1.850612e+08 4.442261e+08
4.179012e+00 1.760614e+08 4.210430e+08
4.262780e+00 1.674971e+08 3.995781e+08
4.348227e+00 1.593475e+08 3.790776e+08
4.435387e+00 1.515925e+08 3.594851e+08
4.524294e+00 1.442130e+08 3.409416e+08
4.614983e+00 1.368304e+08 3.232746e+08
4.707490e+00 1.297321e+08 3.065516e+08
4.801851e+00 1.230015e+08 2.905029e+08
4.898104e+00 1.167890e+08 2.752922e+08
4.996286e+00 1.109357e+08 2.608420e+08
5.096436e+00 1.054291e+08 2.478417e+08
5.198594e+00 1.002026e+08 2.349999e+08
5.302799e+00 9.513824e+07 2.229150e+08
5.409093e+00 9.036511e+07 2.112338e+08
5.517518e+00 8.569869e+07 2.002231e+08
5.628116e+00 8.124452e+07 1.900221e+08
5.740932e+00 7.702091e+07 1.804125e+08
5.856008e+00 7.302198e+07 1.711159e+08
5.973391e+00 6.934476e+07 1.622756e+08
6.093127e+00 6.599655e+07 1.539997e+08
6.215264e+00 6.280944e+07 1.462129e+08
6.339848e+00 5.977569e+07 1.387124e+08
6.466930e+00 5.663626e+07 1.315462e+08
6.596559e+00 5.377175e+07 1.248975e+08
6.728787e+00 5.111246e+07 1.185070e+08
6.863665e+00 4.847179e+07 1.125018e+08
7.001246e+00 4.596691e+07 1.068735e+08
7.141586e+00 4.359084e+07 1.014321e+08
7.284738e+00 4.137480e+07 9.614820e+07
7.430760e+00 3.931571e+07 9.103064e+07
7.579709e+00 3.735710e+07 8.630881e+07
7.731644e+00 3.549412e+07 8.203505e+07
7.886624e+00 3.338296e+07 7.772519e+07
8.044711e+00 3.157494e+07 7.368569e+07
8.205967e+00 2.993758e+07 6.982776e+07
8.370455e+00 2.838487e+07 6.616431e+07
8.538240e+00 2.691243e+07 6.274350e+07
8.709388e+00 2.555662e+07 5.949304e+07
8.883967e+00 2.426937e+07 5.637802e+07
9.062045e+00 2.304658e+07 5.347836e+07
9.243693e+00 2.188503e+07 5.073641e+07
9.428983e+00 2.079201e+07 4.809437e+07
9.617986e+00 1.972716e+07 4.551657e+07
9.810778e+00 1.870162e+07 4.316250e+07
1.000743e+01 1.773136e+07 4.091038e+07
1.020803e+01 1.679379e+07 3.881426e+07
1.041265e+01 1.590984e+07 3.680935e+07
1.062137e+01 1.505000e+07 3.490840e+07
1.083428e+01 1.424164e+07 3.311397e+07
1.105145e+01 1.349533e+07 3.141074e+07
1.127297e+01 1.281725e+07 2.981358e+07
1.149894e+01 1.217519e+07 2.828697e+07
1.172944e+01 1.153309e+07 2.683628e+07
1.196455e+01 1.091437e+07 2.546029e+07
1.220438e+01 1.032873e+07 2.414962e+07
1.244902e+01 9.815675e+06 2.288751e+07
1.269856e+01 9.340797e+06 2.172566e+07
1.295310e+01 8.862480e+06 2.063087e+07
1.321274e+01 8.386119e+06 1.958036e+07
1.347759e+01 7.948370e+06 1.855248e+07
1.374775e+01 7.544746e+06 1.758527e+07
1.402332e+01 7.162056e+06 1.666542e+07
1.430442e+01 6.803104e+06 1.580881e+07
1.459115e+01 6.463516e+06 1.498881e+07
1.488362e+01 6.140797e+06 1.418949e+07
1.518197e+01 5.834112e+06 1.345870e+07
1.548629e+01 5.535155e+06 1.276429e+07
1.579671e+01 5.243551e+06 1.210597e+07
1.611335e+01 4.982432e+06 1.147477e+07
1.643634e+01 4.734233e+06 1.088630e+07
1.676581e+01 4.500368e+06 1.032947e+07
1.710188e+01 4.277731e+06 9.784453e+06
1.744468e+01 4.062484e+06 9.273583e+06
1.779436e+01 3.848576e+06 8.803475e+06
1.815105e+01 3.640535e+06 8.342555e+06
1.851488e+01 3.443362e+06 7.914246e+06
1.888601e+01 3.256956e+06 7.507844e+06
1.926458e+01 3.091545e+06 7.126385e+06
1.965074e+01 2.935316e+06 6.763960e+06
2.004464e+01 2.777538e+06 6.411413e+06
2.044643e+01 2.633819e+06 6.072421e+06
2.085628e+01 2.496223e+06 5.763053e+06
2.127434e+01 2.359029e+06 5.463448e+06
2.170078e+01 2.229032e+06 5.182505e+06
2.213577e+01 2.092398e+06 4.909882e+06
2.257948e+01 1.982240e+06 4.657033e+06
2.303209e+01 1.863393e+06 4.412398e+06
2.349376e+01 1.763718e+06 4.176587e+06
2.396469e+01 1.671971e+06 3.963719e+06
2.444506e+01 1.580984e+06 3.761936e+06
2.493506e+01 1.492113e+06 3.570336e+06
2.543488e+01 1.405690e+06 3.381133e+06
2.594472e+01 1.323322e+06 3.202805e+06
2.646478e+01 1.250574e+06 3.030791e+06
2.699527e+01 1.181042e+06 2.872233e+06
2.753639e+01 1.112840e+06 2.722363e+06
2.808835e+01 1.049490e+06 2.579405e+06
2.865138e+01 9.936209e+05 2.444777e+06
2.922570e+01 9.413843e+05 2.317846e+06
2.981152e+01 8.903695e+05 2.195543e+06
3.040909e+01 8.415354e+05 2.079795e+06
3.101864e+01 7.910782e+05 1.970852e+06
3.164041e+01 7.429165e+05 1.867564e+06
3.227464e+01 6.992056e+05 1.770326e+06
3.292158e+01 6.615532e+05 1.677601e+06
3.358149e+01 6.249391e+05 1.589467e+06
3.425463e+01 5.923693e+05 1.505107e+06
3.494126e+01 5.606884e+05 1.425325e+06
3.564165e+01 5.306891e+05 1.352140e+06
3.635609e+01 5.024999e+05 1.281601e+06
3.708484e+01 4.751333e+05 1.213505e+06
3.782820e+01 4.494296e+05 1.149738e+06
3.858647e+01 4.252651e+05 1.089373e+06
3.935993e+01 4.026182e+05 1.032198e+06
4.014890e+01 3.817748e+05 9.772404e+05
4.095368e+01 3.619976e+05 9.261810e+05
4.177459e+01 3.432326e+05 8.776502e+05
4.261196e+01 3.254283e+05 8.313138e+05
4.346611e+01 3.065092e+05 7.872142e+05
4.433739e+01 2.885119e+05 7.447871e+05
4.522613e+01 2.731901e+05 7.047267e+05
4.613268e+01 2.575419e+05 6.668773e+05
4.705741e+01 2.414549e+05 6.307504e+05
4.800067e+01 2.265039e+05 5.972041e+05
4.896284e+01 2.136032e+05 5.653597e+05
4.994430e+01 2.023952e+05 5.341267e+05
5.094543e+01 1.917904e+05 5.054295e+05
5.196662e+01 1.817569e+05 4.770838e+05
5.300829e+01 1.722400e+05 4.510370e+05
5.407084e+01 1.623499e+05 4.269207e+05
5.515468e+01 1.519712e+05 4.040310e+05
5.626026e+01 1.434414e+05 3.823525e+05
5.738799e+01 1.355732e+05 3.618726e+05
5.853833e+01 1.281398e+05 3.423110e+05
5.971172e+01 1.211081e+05 3.236424e+05
6.090864e+01 1.131077e+05 3.064358e+05
6.212955e+01 1.067313e+05 2.903069e+05
6.337493e+01 1.007667e+05 2.747262e+05
6.464528e+01 9.513153e+04 2.597178e+05
6.594109e+01 8.980783e+04 2.457501e+05
6.726287e+01 8.479476e+04 2.325172e+05
6.861115e+01 8.000963e+04 2.201581e+05
6.998645e+01 7.542704e+04 2.081033e+05
7.138933e+01 7.060325e+04 1.967834e+05
7.282032e+01 6.656663e+04 1.859478e+05
7.428000e+01 6.282025e+04 1.757363e+05
7.576894e+01 5.928021e+04 1.660151e+05
7.728772e+01 5.593531e+04 1.568943e+05
7.883694e+01 5.277495e+04 1.482956e+05
8.041722e+01 4.980166e+04 1.401970e+05
8.202918e+01 4.705337e+04 1.322121e+05
8.367345e+01 4.422031e+04 1.248298e+05
8.535068e+01 4.164071e+04 1.177561e+05
8.706153e+01 3.909201e+04 1.114010e+05
8.880667e+01 3.657824e+04 1.053038e+05
9.058679e+01 3.419786e+04 9.927031e+04
9.240260e+01 3.223243e+04 9.366889e+04
9.425480e+01 3.026382e+04 8.856208e+04
9.614413e+01 2.845588e+04 8.360736e+04
9.807133e+01 2.681906e+04 7.889343e+04
1.000372e+02 2.505578e+04 7.444844e+04
1.020424e+02 2.330976e+04 7.035226e+04
1.040878e+02 2.154224e+04 6.644859e+04
1.061743e+02 2.000329e+04 6.274271e+04
1.083025e+02 1.856096e+04 5.929279e+04
1.104734e+02 1.741200e+04 5.591075e+04
1.126879e+02 1.638548e+04 5.274693e+04
1.149467e+02 1.534143e+04 4.972282e+04
1.172508e+02 1.424330e+04 4.694446e+04
1.196011e+02 1.341566e+04 4.428640e+04
1.219985e+02 1.264250e+04 4.182143e+04
1.244439e+02 1.171307e+04 3.946792e+04
1.269384e+02 1.087184e+04 3.715293e+04
1.294828e+02 1.007673e+04 3.505357e+04
1.320783e+02 9.443633e+03 3.306456e+04
1.347258e+02 8.869912e+03 3.116767e+04
1.374264e+02 8.217891e+03 2.934626e+04
1.401811e+02 7.550760e+03 2.766313e+04
1.429910e+02 6.937669e+03 2.604806e+04
1.458573e+02 6.362033e+03 2.457940e+04
1.487810e+02 5.976397e+03 2.316799e+04
1.517633e+02 5.603424e+03 2.179724e+04
1.548053e+02 5.119878e+03 2.053253e+04
1.579084e+02 4.743032e+03 1.934464e+04
1.610737e+02 4.430514e+03 1.819379e+04
1.643024e+02 4.049874e+03 1.707524e+04
1.675958e+02 3.771230e+03 1.601582e+04
1.709552e+02 3.547212e+03 1.508369e+04
1.743820e+02 3.328418e+03 1.418140e+04
1.778775e+02 3.112915e+03 1.335021e+04
1.814430e+02 2.886888e+03 1.253547e+04
1.850801e+02 2.640426e+03 1.178610e+04
1.887900e+02 2.465694e+03 1.109452e+04
1.925743e+02 2.292179e+03 1.041125e+04
1.964344e+02 2.097775e+03 9.794275e+03
2.003719e+02 1.938092e+03 9.187975e+03
2.043883e+02 1.806869e+03 8.636588e+03
2.084853e+02 1.691234e+03 8.110245e+03
2.126644e+02 1.575350e+03 7.617568e+03
2.169272e+02 1.433965e+03 7.157856e+03
2.212755e+02 1.333260e+03 6.721178e+03
2.257109e+02 1.224150e+03 6.313677e+03
2.302353e+02 1.103501e+03 5.935963e+03
2.348503e+02 9.949862e+02 5.571787e+03
2.395579e+02 8.995624e+02 5.219044e+03
2.443598e+02 8.276855e+02 4.889431e+03
2.492580e+02 7.678304e+02 4.584667e+03
2.542544e+02 7.150353e+02 4.298888e+03
2.593509e+02 6.656387e+02 4.017642e+03
2.645495e+02 6.058759e+02 3.767051e+03
2.698524e+02 5.501981e+02 3.524716e+03
2.752616e+02 4.978154e+02 3.301113e+03
2.807792e+02 4.527005e+02 3.090119e+03
2.864074e+02 4.032792e+02 2.899518e+03
2.921484e+02 3.647232e+02 2.719253e+03
2.980045e+02 3.341958e+02 2.547778e+03
3.039780e+02 3.009044e+02 2.380565e+03
3.100712e+02 2.715616e+02 2.225686e+03
3.162865e+02 2.458850e+02 2.079512e+03
3.226265e+02 2.288963e+02 1.940827e+03
3.290935e+02 2.132354e+02 1.813732e+03
3.356901e+02 1.937483e+02 1.694254e+03
3.424190e+02 1.717458e+02 1.582446e+03
3.492828e+02 1.530245e+02 1.478578e+03
3.562841e+02 1.395942e+02 1.378336e+03
3.634258e+02 1.257441e+02 1.286958e+03
3.707107e+02 1.158831e+02 1.202215e+03
3.781415e+02 1.052175e+02 1.121686e+03
3.857213e+02 9.346913e+01 1.047285e+03
3.934531e+02 8.459834e+01 9.769026e+02
4.013398e+02 7.645272e+01 9.107478e+02
4.093847e+02 6.850500e+01 8.496694e+02
4.175907e+02 6.205168e+01 7.936100e+02
4.259613e+02 5.646114e+01 7.392150e+02
4.344997e+02 5.101551e+01 6.890259e+02
4.432092e+02 4.606059e+01 6.431846e+02
4.520933e+02 4.038978e+01 5.986620e+02
4.611555e+02 3.536020e+01 5.580458e+02
4.703993e+02 3.101184e+01 5.182086e+02
4.798284e+02 2.747209e+01 4.814219e+02
4.894465e+02 2.400783e+01 4.484031e+02
4.992574e+02 2.086948e+01 4.163894e+02
5.092650e+02 1.827978e+01 3.868064e+02
5.194732e+02 1.587997e+01 3.590688e+02
5.298860e+02 1.392188e+01 3.325532e+02
5.405075e+02 1.199076e+01 3.084979e+02
5.513420e+02 1.060398e+01 2.857193e+02
5.623936e+02 9.108296e+00 2.651720e+02
5.736667e+02 7.807751e+00 2.458404e+02
5.851658e+02 6.679101e+00 2.281738e+02
5.968954e+02 5.701583e+00 2.115573e+02
6.088601e+02 4.856686e+00 1.961168e+02
6.210647e+02 4.140980e+00 1.815441e+02
6.335139e+02 3.526650e+00 1.680950e+02
6.462126e+02 2.996905e+00 1.551262e+02
6.591659e+02 2.541065e+00 1.436308e+02
6.723788e+02 2.144804e+00 1.322774e+02
6.858566e+02 1.802744e+00 1.226540e+02
6.996046e+02 1.511451e+00 1.132344e+02
7.136281e+02 1.263997e+00 1.045153e+02
7.279327e+02 1.054309e+00 9.625046e+01
7.425240e+02 8.770756e-01 8.854907e+01
7.574079e+02 7.532307e-01 8.115735e+01
7.725901e+02 6.269254e-01 7.486106e+01
7.880766e+02 5.200434e-01 6.882854e+01
8.038735e+02 4.302120e-01 6.310411e+01
8.199871e+02 3.549122e-01 5.812006e+01
8.364237e+02 2.919652e-01 5.336004e+01
8.531897e+02 2.394905e-01 4.874936e+01
8.702918e+02 1.958699e-01 4.480920e+01
8.877368e+02 1.597143e-01 4.113780e+01
9.055314e+02 1.298347e-01 3.794433e+01
9.236827e+02 1.052160e-01 3.490554e+01
9.421978e+02 8.499442e-02 3.197440e+01
9.610841e+02 6.816322e-02 2.918730e+01
9.803490e+02 5.424201e-02 2.685588e+01
1.000000e+03 4.300818e-02 2.463070e+01
