# Energy(MeV) Phi16_Planare Phi84_Planare
5.000000e-02 8.485208e+10 1.362179e+11
5.100225e-02 8.323083e+10 1.330386e+11
5.202458e-02 8.165642e+10 1.298969e+11
5.306741e-02 8.011058e+10 1.269035e+11
5.413114e-02 7.871761e+10 1.239830e+11
5.521620e-02 7.712703e+10 1.211502e+11
5.632300e-02 7.555336e+10 1.185153e+11
5.745199e-02 7.418849e+10 1.159445e+11
5.860361e-02 7.273691e+10 1.132114e+11
5.977832e-02 7.128790e+10 1.106766e+11
6.097657e-02 6.990586e+10 1.081988e+11
6.219884e-02 6.853968e+10 1.058500e+11
6.344561e-02 6.730998e+10 1.035424e+11
6.471737e-02 6.596171e+10 1.011940e+11
6.601463e-02 6.460609e+10 9.890288e+10
6.733789e-02 6.330572e+10 9.667093e+10
6.868767e-02 6.215625e+10 9.450785e+10
7.006451e-02 6.104724e+10 9.224533e+10
7.146895e-02 5.994243e+10 9.013685e+10
7.290154e-02 5.876293e+10 8.804839e+10
7.436284e-02 5.768952e+10 8.605565e+10
7.585344e-02 5.665298e+10 8.414831e+10
7.737392e-02 5.545662e+10 8.222691e+10
7.892487e-02 5.433022e+10 8.031761e+10
8.050691e-02 5.332769e+10 7.847705e+10
8.212067e-02 5.233247e+10 7.675520e+10
8.376677e-02 5.131667e+10 7.496344e+10
8.544587e-02 5.022139e+10 7.325804e+10
8.715862e-02 4.913257e+10 7.156413e+10
8.890571e-02 4.821675e+10 6.992349e+10
9.068782e-02 4.723408e+10 6.837908e+10
9.250565e-02 4.629105e+10 6.691704e+10
9.435992e-02 4.519579e+10 6.555590e+10
9.625136e-02 4.434715e+10 6.414117e+10
9.818071e-02 4.344805e+10 6.273119e+10
1.001487e-01 4.257355e+10 6.136351e+10
1.021562e-01 4.178354e+10 6.000321e+10
1.042039e-01 4.092975e+10 5.863211e+10
1.062927e-01 4.000282e+10 5.735202e+10
1.084233e-01 3.911524e+10 5.609453e+10
1.105966e-01 3.828810e+10 5.486892e+10
1.128135e-01 3.748930e+10 5.366571e+10
1.150749e-01 3.675597e+10 5.247346e+10
1.173816e-01 3.601350e+10 5.130294e+10
1.197345e-01 3.517378e+10 5.019930e+10
1.221345e-01 3.435563e+10 4.902198e+10
1.245827e-01 3.359961e+10 4.781095e+10
1.270800e-01 3.285995e+10 4.667217e+10
1.296273e-01 3.219551e+10 4.557410e+10
1.322256e-01 3.155842e+10 4.450971e+10
1.348761e-01 3.091440e+10 4.346472e+10
1.375797e-01 3.027830e+10 4.244666e+10
1.403374e-01 2.962352e+10 4.148637e+10
1.431505e-01 2.888894e+10 4.050489e+10
1.460199e-01 2.828064e+10 3.958255e+10
1.489469e-01 2.765843e+10 3.871103e+10
1.519325e-01 2.706475e+10 3.781478e+10
1.549780e-01 2.643117e+10 3.692984e+10
1.580845e-01 2.581797e+10 3.610401e+10
1.612533e-01 2.520887e+10 3.529555e+10
1.644856e-01 2.459450e+10 3.446460e+10
1.677827e-01 2.399451e+10 3.365402e+10
1.711459e-01 2.343346e+10 3.292524e+10
1.745765e-01 2.299242e+10 3.217381e+10
1.780759e-01 2.242641e+10 3.141041e+10
1.816454e-01 2.189221e+10 3.067153e+10
1.852865e-01 2.137414e+10 2.991660e+10
1.890005e-01 2.082752e+10 2.923052e+10
1.927890e-01 2.030684e+10 2.856735e+10
1.966535e-01 1.982815e+10 2.791554e+10
2.005954e-01 1.935109e+10 2.725194e+10
2.046163e-01 1.886938e+10 2.658814e+10
2.087178e-01 1.842201e+10 2.597289e+10
2.129015e-01 1.801750e+10 2.538537e+10
2.171691e-01 1.753471e+10 2.477350e+10
2.215223e-01 1.708551e+10 2.418622e+10
2.259627e-01 1.667031e+10 2.362702e+10
2.304921e-01 1.628578e+10 2.306837e+10
2.351123e-01 1.588803e+10 2.251687e+10
2.398251e-01 1.546234e+10 2.202290e+10
2.446324e-01 1.505726e+10 2.148382e+10
2.495360e-01 1.463818e+10 2.095186e+10
2.545379e-01 1.422771e+10 2.043226e+10
2.596401e-01 1.383528e+10 1.993542e+10
2.648446e-01 1.344844e+10 1.943770e+10
2.701534e-01 1.306852e+10 1.895903e+10
2.755686e-01 1.272355e+10 1.851311e+10
2.810923e-01 1.240614e+10 1.806241e+10
2.867268e-01 1.206841e+10 1.763543e+10
2.924742e-01 1.173046e+10 1.720632e+10
2.983368e-01 1.141879e+10 1.678266e+10
3.043170e-01 1.112170e+10 1.636774e+10
3.104170e-01 1.080939e+10 1.598015e+10
3.166393e-01 1.049162e+10 1.559039e+10
3.229863e-01 1.017865e+10 1.520231e+10
3.294605e-01 9.874453e+09 1.482007e+10
3.360645e-01 9.571330e+09 1.446183e+10
3.428009e-01 9.298479e+09 1.408726e+10
3.496723e-01 9.049860e+09 1.373922e+10
3.566815e-01 8.783678e+09 1.340397e+10
3.638311e-01 8.510937e+09 1.307444e+10
3.711241e-01 8.271163e+09 1.275453e+10
3.785633e-01 8.049108e+09 1.244335e+10
3.861515e-01 7.799883e+09 1.212771e+10
3.938919e-01 7.573374e+09 1.183504e+10
4.017874e-01 7.355768e+09 1.154673e+10
4.098412e-01 7.143910e+09 1.125363e+10
4.180565e-01 6.924809e+09 1.095643e+10
4.264364e-01 6.696335e+09 1.067851e+10
4.349843e-01 6.476995e+09 1.040933e+10
4.437035e-01 6.256426e+09 1.014592e+10
4.525975e-01 6.053775e+09 9.885258e+09
4.616698e-01 5.870078e+09 9.629717e+09
4.709239e-01 5.687889e+09 9.380095e+09
4.803635e-01 5.498490e+09 9.125852e+09
4.899924e-01 5.312950e+09 8.868647e+09
4.998143e-01 5.139030e+09 8.628096e+09
5.098330e-01 4.952194e+09 8.400530e+09
5.200526e-01 4.769033e+09 8.177666e+09
5.304770e-01 4.623574e+09 7.960192e+09
5.411103e-01 4.461787e+09 7.739688e+09
5.519569e-01 4.305454e+09 7.521023e+09
5.630208e-01 4.163029e+09 7.314783e+09
5.743065e-01 4.048931e+09 7.110134e+09
5.858184e-01 3.910812e+09 6.910254e+09
5.975611e-01 3.786481e+09 6.711363e+09
6.095392e-01 3.674607e+09 6.518370e+09
6.217573e-01 3.529804e+09 6.331846e+09
6.342204e-01 3.411400e+09 6.153055e+09
6.469333e-01 3.299330e+09 5.973773e+09
6.599011e-01 3.176704e+09 5.799883e+09
6.731287e-01 3.079163e+09 5.633295e+09
6.866215e-01 2.978842e+09 5.472169e+09
7.003848e-01 2.879287e+09 5.311443e+09
7.144240e-01 2.760346e+09 5.155981e+09
7.287445e-01 2.670881e+09 5.000965e+09
7.433522e-01 2.586096e+09 4.851141e+09
7.582526e-01 2.504075e+09 4.695938e+09
7.734517e-01 2.418704e+09 4.551212e+09
7.889555e-01 2.342452e+09 4.415153e+09
8.047701e-01 2.259584e+09 4.281241e+09
8.209016e-01 2.173800e+09 4.147415e+09
8.373565e-01 2.090722e+09 4.025908e+09
8.541413e-01 2.023077e+09 3.898632e+09
8.712625e-01 1.934429e+09 3.775869e+09
8.887268e-01 1.856577e+09 3.654857e+09
9.065413e-01 1.786890e+09 3.538570e+09
9.247129e-01 1.715811e+09 3.424696e+09
9.432487e-01 1.655161e+09 3.314551e+09
9.621560e-01 1.598907e+09 3.207421e+09
9.814423e-01 1.547991e+09 3.104242e+09
1.001115e+00 1.498462e+09 3.002086e+09
1.021183e+00 1.450287e+09 2.905531e+09
1.041652e+00 1.393080e+09 2.807984e+09
1.062532e+00 1.344579e+09 2.712260e+09
1.083830e+00 1.300115e+09 2.620514e+09
1.105556e+00 1.245446e+09 2.526163e+09
1.127716e+00 1.194246e+09 2.440190e+09
1.150321e+00 1.151291e+09 2.353247e+09
1.173379e+00 1.112274e+09 2.275052e+09
1.196900e+00 1.069110e+09 2.195549e+09
1.220892e+00 1.018346e+09 2.118146e+09
1.245364e+00 9.741653e+08 2.043703e+09
1.270327e+00 9.366719e+08 1.968049e+09
1.295791e+00 9.018754e+08 1.896354e+09
1.321765e+00 8.557499e+08 1.830336e+09
1.348260e+00 8.117345e+08 1.760836e+09
1.375286e+00 7.701852e+08 1.695600e+09
1.402853e+00 7.321464e+08 1.631763e+09
1.430973e+00 6.965692e+08 1.569062e+09
1.459657e+00 6.666493e+08 1.509590e+09
1.488916e+00 6.338490e+08 1.450097e+09
1.518761e+00 6.080336e+08 1.393987e+09
1.549204e+00 5.819180e+08 1.340653e+09
1.580258e+00 5.522008e+08 1.287610e+09
1.611934e+00 5.281607e+08 1.236603e+09
1.644245e+00 5.030107e+08 1.186337e+09
1.677204e+00 4.825540e+08 1.138992e+09
1.710823e+00 4.593311e+08 1.092508e+09
1.745117e+00 4.361997e+08 1.046635e+09
1.780097e+00 4.142327e+08 1.002897e+09
1.815779e+00 3.947142e+08 9.626218e+08
1.852176e+00 3.788101e+08 9.228906e+08
1.889303e+00 3.633459e+08 8.829429e+08
1.927174e+00 3.462249e+08 8.454447e+08
1.965804e+00 3.285021e+08 8.096585e+08
2.005209e+00 3.129754e+08 7.734398e+08
2.045403e+00 3.004957e+08 7.393657e+08
2.086403e+00 2.882922e+08 7.061649e+08
2.128224e+00 2.751298e+08 6.729946e+08
2.170885e+00 2.631066e+08 6.415799e+08
2.214400e+00 2.485498e+08 6.110315e+08
2.258787e+00 2.362530e+08 5.838587e+08
2.304064e+00 2.247973e+08 5.563713e+08
2.350249e+00 2.132919e+08 5.293299e+08
2.397360e+00 2.023750e+08 5.029078e+08
2.445415e+00 1.922802e+08 4.787107e+08
2.494433e+00 1.840649e+08 4.549223e+08
2.544434e+00 1.762843e+08 4.325814e+08
2.595437e+00 1.688686e+08 4.104802e+08
2.647462e+00 1.617102e+08 3.905157e+08
2.700530e+00 1.542728e+08 3.703340e+08
2.754662e+00 1.472717e+08 3.516840e+08
2.809879e+00 1.400940e+08 3.343094e+08
2.866203e+00 1.332544e+08 3.172433e+08
2.923656e+00 1.266261e+08 3.012265e+08
2.982260e+00 1.197411e+08 2.858299e+08
3.042039e+00 1.135672e+08 2.707908e+08
3.103017e+00 1.077222e+08 2.565139e+08
3.165216e+00 1.022680e+08 2.432230e+08
3.228663e+00 9.705112e+07 2.307445e+08
3.293381e+00 9.229692e+07 2.188810e+08
3.359397e+00 8.784394e+07 2.075677e+08
3.426736e+00 8.357535e+07 1.967056e+08
3.495424e+00 7.934020e+07 1.863385e+08
3.565490e+00 7.527141e+07 1.765359e+08
3.636960e+00 7.141104e+07 1.673103e+08
3.709862e+00 6.774841e+07 1.586083e+08
3.784226e+00 6.427342e+07 1.502766e+08
3.860081e+00 6.097645e+07 1.423814e+08
3.937456e+00 5.784839e+07 1.349136e+08
4.016382e+00 5.488059e+07 1.278115e+08
4.096890e+00 5.206485e+07 1.211148e+08
4.179012e+00 4.939338e+07 1.148348e+08
4.262780e+00 4.685881e+07 1.088042e+08
4.348227e+00 4.445411e+07 1.031394e+08
4.435387e+00 4.215429e+07 9.782161e+07
4.524294e+00 3.988812e+07 9.268385e+07
4.614983e+00 3.774367e+07 8.767417e+07
4.707490e+00 3.571442e+07 8.301496e+07
4.801851e+00 3.379416e+07 7.864698e+07
4.898104e+00 3.197706e+07 7.454834e+07
4.996286e+00 3.026917e+07 7.075327e+07
5.096436e+00 2.865481e+07 6.699857e+07
5.198594e+00 2.722269e+07 6.353583e+07
5.302799e+00 2.587990e+07 6.023437e+07
5.409093e+00 2.460833e+07 5.707691e+07
5.517518e+00 2.339905e+07 5.410283e+07
5.628116e+00 2.224900e+07 5.132260e+07
5.740932e+00 2.115529e+07 4.859433e+07
5.856008e+00 2.009417e+07 4.605486e+07
5.973391e+00 1.904928e+07 4.368624e+07
6.093127e+00 1.810101e+07 4.142311e+07
6.215264e+00 1.710898e+07 3.927171e+07
6.339848e+00 1.619489e+07 3.719514e+07
6.466930e+00 1.538329e+07 3.526884e+07
6.596559e+00 1.461760e+07 3.343765e+07
6.728787e+00 1.385310e+07 3.170312e+07
6.863665e+00 1.309820e+07 3.000458e+07
7.001246e+00 1.238439e+07 2.845104e+07
7.141586e+00 1.170944e+07 2.695055e+07
7.284738e+00 1.107664e+07 2.552335e+07
7.430760e+00 1.048058e+07 2.417227e+07
7.579709e+00 9.916584e+06 2.293142e+07
7.731644e+00 9.382932e+06 2.173573e+07
7.886624e+00 8.908047e+06 2.056735e+07
8.044711e+00 8.462882e+06 1.949650e+07
8.205967e+00 8.039898e+06 1.849057e+07
8.370455e+00 7.637980e+06 1.752148e+07
8.538240e+00 7.256080e+06 1.659359e+07
8.709388e+00 6.893205e+06 1.573932e+07
8.883967e+00 6.548409e+06 1.488348e+07
9.062045e+00 6.220792e+06 1.408148e+07
9.243693e+00 5.909502e+06 1.334527e+07
9.428983e+00 5.613727e+06 1.266006e+07
9.617986e+00 5.332694e+06 1.200981e+07
9.810778e+00 5.065672e+06 1.138585e+07
1.000743e+01 4.811963e+06 1.079467e+07
1.020803e+01 4.570906e+06 1.022630e+07
1.041265e+01 4.341872e+06 9.687000e+06
1.062137e+01 4.124261e+06 9.173419e+06
1.083428e+01 3.917507e+06 8.697861e+06
1.105145e+01 3.721014e+06 8.249911e+06
1.127297e+01 3.527356e+06 7.821683e+06
1.149894e+01 3.343741e+06 7.408399e+06
1.172944e+01 3.169650e+06 7.017247e+06
1.196455e+01 3.004589e+06 6.657037e+06
1.220438e+01 2.848091e+06 6.312134e+06
1.244902e+01 2.699713e+06 5.977086e+06
1.269856e+01 2.559035e+06 5.656676e+06
1.295310e+01 2.425658e+06 5.358025e+06
1.321274e+01 2.299205e+06 5.079006e+06
1.347759e+01 2.179316e+06 4.817790e+06
1.374775e+01 2.065652e+06 4.569462e+06
1.402332e+01 1.957890e+06 4.329495e+06
1.430442e+01 1.855726e+06 4.101680e+06
1.459115e+01 1.758868e+06 3.885804e+06
1.488362e+01 1.667043e+06 3.681014e+06
1.518197e+01 1.579988e+06 3.487628e+06
1.548629e+01 1.497459e+06 3.301899e+06
1.579671e+01 1.419219e+06 3.129252e+06
1.611335e+01 1.345046e+06 2.962317e+06
1.643634e+01 1.269884e+06 2.805918e+06
1.676581e+01 1.200977e+06 2.657428e+06
1.710188e+01 1.136836e+06 2.516831e+06
1.744468e+01 1.069733e+06 2.386220e+06
1.779436e+01 1.010535e+06 2.259401e+06
1.815105e+01 9.549972e+05 2.139119e+06
1.851488e+01 9.025066e+05 2.024955e+06
1.888601e+01 8.540717e+05 1.918381e+06
1.926458e+01 8.040833e+05 1.817972e+06
1.965074e+01 7.597849e+05 1.723971e+06
2.004464e+01 7.167441e+05 1.631461e+06
2.044643e+01 6.779149e+05 1.545132e+06
2.085628e+01 6.411118e+05 1.465060e+06
2.127434e+01 6.081829e+05 1.388261e+06
2.170078e+01 5.769357e+05 1.315453e+06
2.213577e+01 5.472846e+05 1.246344e+06
2.257948e+01 5.191485e+05 1.180490e+06
2.303209e+01 4.924501e+05 1.117317e+06
2.349376e+01 4.661003e+05 1.058325e+06
2.396469e+01 4.399104e+05 1.002412e+06
2.444506e+01 4.147350e+05 9.495928e+05
2.493506e+01 3.907542e+05 8.990712e+05
2.543488e+01 3.682598e+05 8.522041e+05
2.594472e+01 3.487816e+05 8.077600e+05
2.646478e+01 3.302159e+05 7.651813e+05
2.699527e+01 3.096172e+05 7.249128e+05
2.753639e+01 2.926178e+05 6.866137e+05
2.808835e+01 2.759648e+05 6.500670e+05
2.865138e+01 2.601483e+05 6.159805e+05
2.922570e+01 2.454107e+05 5.837064e+05
2.981152e+01 2.324305e+05 5.530431e+05
3.040909e+01 2.201275e+05 5.232653e+05
3.101864e+01 2.086597e+05 4.956991e+05
3.164041e+01 1.978615e+05 4.694066e+05
3.227464e+01 1.876168e+05 4.442831e+05
3.292158e+01 1.778974e+05 4.206093e+05
3.358149e+01 1.686766e+05 3.983548e+05
3.425463e+01 1.587747e+05 3.771827e+05
3.494126e+01 1.497520e+05 3.572355e+05
3.564165e+01 1.418169e+05 3.380201e+05
3.635609e+01 1.344378e+05 3.199993e+05
3.708484e+01 1.274812e+05 3.030257e+05
3.782820e+01 1.208996e+05 2.867295e+05
3.858647e+01 1.146518e+05 2.714200e+05
3.935993e+01 1.087209e+05 2.571554e+05
4.014890e+01 1.021067e+05 2.432978e+05
4.095368e+01 9.559324e+04 2.301410e+05
4.177459e+01 9.020541e+04 2.177005e+05
4.261196e+01 8.421051e+04 2.059669e+05
4.346611e+01 7.957524e+04 1.948153e+05
4.433739e+01 7.529048e+04 1.843682e+05
4.522613e+01 7.123148e+04 1.744255e+05
4.613268e+01 6.728134e+04 1.648546e+05
4.705741e+01 6.332743e+04 1.560932e+05
4.800067e+01 5.980695e+04 1.476548e+05
4.896284e+01 5.647642e+04 1.396164e+05
4.994430e+01 5.336885e+04 1.319970e+05
5.094543e+01 4.992109e+04 1.248050e+05
5.196662e+01 4.644226e+04 1.180235e+05
5.300829e+01 4.366228e+04 1.116809e+05
5.407084e+01 4.119446e+04 1.056554e+05
5.515468e+01 3.886181e+04 9.996981e+04
5.626026e+01 3.670459e+04 9.461878e+04
5.738799e+01 3.463608e+04 8.945867e+04
5.853833e+01 3.252275e+04 8.475298e+04
5.971172e+01 3.061917e+04 8.014907e+04
6.090864e+01 2.878555e+04 7.572168e+04
6.212955e+01 2.717787e+04 7.153503e+04
6.337493e+01 2.560208e+04 6.768614e+04
6.464528e+01 2.415162e+04 6.402302e+04
6.594109e+01 2.279151e+04 6.060868e+04
6.726287e+01 2.151096e+04 5.725222e+04
6.861115e+01 2.030162e+04 5.412397e+04
6.998645e+01 1.915958e+04 5.118657e+04
7.138933e+01 1.807222e+04 4.836977e+04
7.282032e+01 1.700954e+04 4.573002e+04
7.428000e+01 1.604109e+04 4.321469e+04
7.576894e+01 1.513780e+04 4.081926e+04
7.728772e+01 1.428487e+04 3.851347e+04
7.883694e+01 1.347951e+04 3.632766e+04
8.041722e+01 1.271909e+04 3.429951e+04
8.202918e+01 1.200112e+04 3.242452e+04
8.367345e+01 1.115509e+04 3.060811e+04
8.535068e+01 1.051214e+04 2.894834e+04
8.706153e+01 9.890566e+03 2.735508e+04
8.880667e+01 9.242931e+03 2.579831e+04
9.058679e+01 8.714859e+03 2.433829e+04
9.240260e+01 8.233285e+03 2.297572e+04
9.425480e+01 7.768432e+03 2.167788e+04
9.614413e+01 7.279783e+03 2.049699e+04
9.807133e+01 6.862606e+03 1.932754e+04
1.000372e+02 6.446058e+03 1.825509e+04
1.020424e+02 5.973344e+03 1.725119e+04
1.040878e+02 5.550012e+03 1.630189e+04
1.061743e+02 5.198701e+03 1.538416e+04
1.083025e+02 4.899130e+03 1.451740e+04
1.104734e+02 4.595647e+03 1.369338e+04
1.126879e+02 4.326078e+03 1.291029e+04
1.149467e+02 4.025232e+03 1.218005e+04
1.172508e+02 3.750472e+03 1.149792e+04
1.196011e+02 3.510408e+03 1.083777e+04
1.219985e+02 3.279179e+03 1.021141e+04
1.244439e+02 3.090179e+03 9.631986e+03
1.269384e+02 2.888328e+03 9.087631e+03
1.294828e+02 2.685003e+03 8.573654e+03
1.320783e+02 2.471838e+03 8.085670e+03
1.347258e+02 2.328673e+03 7.627894e+03
1.374264e+02 2.185087e+03 7.194638e+03
1.401811e+02 2.022866e+03 6.776875e+03
1.429910e+02 1.882367e+03 6.388351e+03
1.458573e+02 1.765017e+03 6.017699e+03
1.487810e+02 1.646195e+03 5.664364e+03
1.517633e+02 1.513866e+03 5.329788e+03
1.548053e+02 1.417926e+03 5.014290e+03
1.579084e+02 1.303943e+03 4.719709e+03
1.610737e+02 1.192498e+03 4.445376e+03
1.643024e+02 1.097703e+03 4.184910e+03
1.675958e+02 1.026286e+03 3.938990e+03
1.709552e+02 9.375053e+02 3.714680e+03
1.743820e+02 8.564198e+02 3.499985e+03
1.778775e+02 7.838687e+02 3.291651e+03
1.814430e+02 7.231984e+02 3.103181e+03
1.850801e+02 6.754851e+02 2.922272e+03
1.887900e+02 6.179175e+02 2.746395e+03
1.925743e+02 5.714272e+02 2.583707e+03
1.964344e+02 5.350487e+02 2.432441e+03
2.003719e+02 5.009294e+02 2.290064e+03
2.043883e+02 4.696727e+02 2.153778e+03
2.084853e+02 4.399790e+02 2.024438e+03
2.126644e+02 4.020269e+02 1.902300e+03
2.169272e+02 3.710428e+02 1.790012e+03
2.212755e+02 3.487157e+02 1.682583e+03
2.257109e+02 3.264060e+02 1.582225e+03
2.302353e+02 3.006361e+02 1.486321e+03
2.348503e+02 2.739978e+02 1.396470e+03
2.395579e+02 2.499966e+02 1.309956e+03
2.443598e+02 2.309972e+02 1.229890e+03
2.492580e+02 2.124879e+02 1.153056e+03
2.542544e+02 1.984571e+02 1.081531e+03
2.593509e+02 1.857132e+02 1.014906e+03
2.645495e+02 1.737508e+02 9.504960e+02
2.698524e+02 1.611813e+02 8.907113e+02
2.752616e+02 1.472684e+02 8.347031e+02
2.807792e+02 1.341837e+02 7.819212e+02
2.864074e+02 1.230157e+02 7.336231e+02
2.921484e+02 1.132902e+02 6.873301e+02
2.980045e+02 1.052021e+02 6.446718e+02
3.039780e+02 9.767175e+01 6.032859e+02
3.100712e+02 9.023671e+01 5.651526e+02
3.162865e+02 8.208303e+01 5.300024e+02
3.226265e+02 7.460773e+01 4.961210e+02
3.290935e+02 6.775958e+01 4.639181e+02
3.356901e+02 6.148115e+01 4.342887e+02
3.424190e+02 5.552833e+01 4.066051e+02
3.492828e+02 5.004551e+01 3.807230e+02
3.562841e+02 4.505560e+01 3.562814e+02
3.634258e+02 4.094884e+01 3.329399e+02
3.707107e+02 3.693970e+01 3.110169e+02
3.781415e+02 3.330491e+01 2.908995e+02
3.857213e+02 3.063267e+01 2.716648e+02
3.934531e+02 2.811077e+01 2.542172e+02
4.013398e+02 2.506437e+01 2.373718e+02
4.093847e+02 2.250668e+01 2.218290e+02
4.175907e+02 2.038010e+01 2.068764e+02
4.259613e+02 1.854942e+01 1.930788e+02
4.344997e+02 1.712920e+01 1.806445e+02
4.432092e+02 1.528409e+01 1.686905e+02
4.520933e+02 1.370983e+01 1.574740e+02
4.611555e+02 1.234674e+01 1.465794e+02
4.703993e+02 1.102461e+01 1.362428e+02
4.798284e+02 1.002572e+01 1.272349e+02
4.894465e+02 8.970737e+00 1.187985e+02
4.992574e+02 7.893233e+00 1.110050e+02
5.092650e+02 6.934618e+00 1.033372e+02
5.194732e+02 6.082999e+00 9.636186e+01
5.298860e+02 5.459599e+00 8.983999e+01
5.405075e+02 4.769101e+00 8.345381e+01
5.513420e+02 4.196361e+00 7.746809e+01
5.623936e+02 3.693894e+00 7.184728e+01
5.736667e+02 3.204720e+00 6.697136e+01
5.851658e+02 2.775313e+00 6.224389e+01
5.968954e+02 2.399023e+00 5.780351e+01
6.088601e+02 2.069861e+00 5.363976e+01
6.210647e+02 1.782445e+00 4.985021e+01
6.335139e+02 1.533436e+00 4.632772e+01
6.462126e+02 1.316712e+00 4.308273e+01
6.591659e+02 1.129869e+00 3.995208e+01
6.723788e+02 9.697138e-01 3.719057e+01
6.858566e+02 8.305904e-01 3.448983e+01
6.996046e+02 7.099715e-01 3.202173e+01
7.136281e+02 6.056027e-01 2.971908e+01
7.279327e+02 5.154772e-01 2.739220e+01
7.425240e+02 4.379754e-01 2.537418e+01
7.574079e+02 3.715870e-01 2.338455e+01
7.725901e+02 3.145544e-01 2.163164e+01
7.880766e+02 2.656659e-01 1.994213e+01
8.038735e+02 2.304237e-01 1.838876e+01
8.199871e+02 1.935802e-01 1.693932e+01
8.364237e+02 1.617437e-01 1.562457e+01
8.531897e+02 1.347939e-01 1.442789e+01
8.702918e+02 1.120384e-01 1.333138e+01
8.877368e+02 9.287409e-02 1.230174e+01
9.055314e+02 7.677678e-02 1.134295e+01
9.236827e+02 6.329204e-02 1.051002e+01
9.421978e+02 5.210506e-02 9.670497e+00
9.610841e+02 4.285172e-02 8.889875e+00
9.803490e+02 3.514069e-02 8.166671e+00
1.000000e+03 2.875502e-02 7.519565e+00
