# Energy(MeV) Fluence_Sferica_Median(p/cm2)
1.500000e+00 2.351882e+08
1.519674e+00 2.288047e+08
1.539606e+00 2.226554e+08
1.559799e+00 2.167240e+08
1.580257e+00 2.109960e+08
1.600984e+00 2.054586e+08
1.621982e+00 2.001002e+08
1.643256e+00 1.949107e+08
1.664809e+00 1.898808e+08
1.686644e+00 1.850024e+08
1.708766e+00 1.802679e+08
1.731178e+00 1.756706e+08
1.753884e+00 1.712043e+08
1.776888e+00 1.668635e+08
1.800193e+00 1.626430e+08
1.823805e+00 1.585380e+08
1.847725e+00 1.545442e+08
1.871960e+00 1.506576e+08
1.896512e+00 1.468743e+08
1.921387e+00 1.431908e+08
1.946588e+00 1.396039e+08
1.972119e+00 1.361104e+08
1.997985e+00 1.327074e+08
2.024190e+00 1.293921e+08
2.050740e+00 1.261619e+08
2.077637e+00 1.230143e+08
2.104887e+00 1.199468e+08
2.132495e+00 1.169573e+08
2.160464e+00 1.140435e+08
2.188801e+00 1.112034e+08
2.217509e+00 1.084349e+08
2.246593e+00 1.057360e+08
2.276059e+00 1.031050e+08
2.305912e+00 1.005401e+08
2.336156e+00 9.803938e+07
2.366797e+00 9.560129e+07
2.397840e+00 9.322418e+07
2.429290e+00 9.090647e+07
2.461152e+00 8.864662e+07
2.493432e+00 8.644315e+07
2.526136e+00 8.429462e+07
2.559268e+00 8.219964e+07
2.592835e+00 8.015685e+07
2.626843e+00 7.816491e+07
2.661296e+00 7.622256e+07
2.696202e+00 7.432853e+07
2.731565e+00 7.248162e+07
2.767392e+00 7.068064e+07
2.803689e+00 6.892443e+07
2.840462e+00 6.721188e+07
2.877717e+00 6.554190e+07
2.915461e+00 6.391341e+07
2.953700e+00 6.232539e+07
2.992440e+00 6.077682e+07
3.031689e+00 5.926672e+07
3.071452e+00 5.779413e+07
3.111737e+00 5.635812e+07
3.152550e+00 5.495777e+07
3.193899e+00 5.359220e+07
3.235790e+00 5.226054e+07
3.278230e+00 5.096195e+07
3.321227e+00 4.969560e+07
3.364788e+00 4.846070e+07
3.408920e+00 4.725647e+07
3.453631e+00 4.608213e+07
3.498929e+00 4.493696e+07
3.544820e+00 4.382021e+07
3.591314e+00 4.273120e+07
3.638417e+00 4.166923e+07
3.686138e+00 4.063362e+07
3.734485e+00 3.962372e+07
3.783467e+00 3.863890e+07
3.833090e+00 3.767854e+07
3.883365e+00 3.674201e+07
3.934298e+00 3.582874e+07
3.985900e+00 3.493815e+07
4.038179e+00 3.406967e+07
4.091143e+00 3.322275e+07
4.144803e+00 3.239686e+07
4.199165e+00 3.159148e+07
4.254241e+00 3.080610e+07
4.310040e+00 3.004022e+07
4.366570e+00 2.929335e+07
4.423841e+00 2.856503e+07
4.481864e+00 2.785480e+07
4.540648e+00 2.716220e+07
4.600202e+00 2.648681e+07
4.660538e+00 2.582818e+07
4.721665e+00 2.518591e+07
4.783594e+00 2.455959e+07
4.846336e+00 2.394882e+07
4.909900e+00 2.335322e+07
4.974297e+00 2.277242e+07
5.039540e+00 2.220603e+07
5.105638e+00 2.165372e+07
5.172603e+00 2.111512e+07
5.240446e+00 2.058989e+07
5.309180e+00 2.007772e+07
5.378814e+00 1.957826e+07
5.449362e+00 1.909121e+07
5.520836e+00 1.861625e+07
5.593247e+00 1.815310e+07
5.666607e+00 1.770145e+07
5.740930e+00 1.726101e+07
5.816227e+00 1.683152e+07
5.892513e+00 1.641270e+07
5.969798e+00 1.600428e+07
6.048098e+00 1.560600e+07
6.127424e+00 1.521762e+07
6.207791e+00 1.483889e+07
6.289211e+00 1.446957e+07
6.371700e+00 1.410942e+07
6.455271e+00 1.375822e+07
6.539938e+00 1.341574e+07
6.625715e+00 1.308178e+07
6.712617e+00 1.275611e+07
6.800659e+00 1.243854e+07
6.889856e+00 1.212885e+07
6.980223e+00 1.182686e+07
7.071775e+00 1.153237e+07
7.164527e+00 1.124521e+07
7.258497e+00 1.096517e+07
7.353699e+00 1.069210e+07
7.450149e+00 1.042581e+07
7.547864e+00 1.016614e+07
7.646862e+00 9.912929e+06
7.747157e+00 9.666006e+06
7.848768e+00 9.425220e+06
7.951712e+00 9.190419e+06
8.056006e+00 8.961453e+06
8.161668e+00 8.738179e+06
8.268715e+00 8.520455e+06
8.377167e+00 8.308143e+06
8.487041e+00 8.101108e+06
8.598357e+00 7.899220e+06
8.711132e+00 7.702351e+06
8.825386e+00 7.510376e+06
8.941139e+00 7.323174e+06
9.058410e+00 7.140626e+06
9.177220e+00 6.962616e+06
9.297587e+00 6.789033e+06
9.419534e+00 6.619765e+06
9.543079e+00 6.454707e+06
9.668246e+00 6.293752e+06
9.795053e+00 6.136801e+06
9.923524e+00 5.983752e+06
1.005368e+01 5.834509e+06
1.018554e+01 5.688978e+06
1.031914e+01 5.547066e+06
1.045448e+01 5.408684e+06
1.059160e+01 5.273744e+06
1.073052e+01 5.142160e+06
1.087126e+01 5.013849e+06
1.101385e+01 4.888730e+06
1.115830e+01 4.766723e+06
1.130465e+01 4.647752e+06
1.145293e+01 4.531740e+06
1.160314e+01 4.418615e+06
1.175533e+01 4.308304e+06
1.190951e+01 4.200737e+06
1.206571e+01 4.095848e+06
1.222397e+01 3.993568e+06
1.238429e+01 3.893833e+06
1.254673e+01 3.796581e+06
1.271129e+01 3.701748e+06
1.287801e+01 3.609276e+06
1.304691e+01 3.519105e+06
1.321804e+01 3.431179e+06
1.339140e+01 3.345441e+06
1.356704e+01 3.261838e+06
1.374499e+01 3.180315e+06
1.392527e+01 3.100822e+06
1.410791e+01 3.023309e+06
1.429295e+01 2.947725e+06
1.448041e+01 2.874023e+06
1.467033e+01 2.802156e+06
1.486275e+01 2.732078e+06
1.505769e+01 2.663746e+06
1.525518e+01 2.597116e+06
1.545527e+01 2.532145e+06
1.565798e+01 2.468792e+06
1.586335e+01 2.407017e+06
1.607141e+01 2.346781e+06
1.628220e+01 2.288045e+06
1.649576e+01 2.230773e+06
1.671211e+01 2.174927e+06
1.693131e+01 2.120473e+06
1.715338e+01 2.067376e+06
1.737836e+01 2.015602e+06
1.760629e+01 1.965118e+06
1.783722e+01 1.915892e+06
1.807117e+01 1.867893e+06
1.830819e+01 1.821091e+06
1.854831e+01 1.775454e+06
1.879159e+01 1.730956e+06
1.903806e+01 1.687567e+06
1.928776e+01 1.645260e+06
1.954074e+01 1.604007e+06
1.979703e+01 1.563783e+06
2.005669e+01 1.524562e+06
2.031975e+01 1.486320e+06
2.058626e+01 1.449031e+06
2.085627e+01 1.412672e+06
2.112982e+01 1.377220e+06
2.140696e+01 1.342652e+06
2.168773e+01 1.308947e+06
2.197218e+01 1.276083e+06
2.226037e+01 1.244038e+06
2.255233e+01 1.212794e+06
2.284813e+01 1.182329e+06
2.314780e+01 1.152624e+06
2.345141e+01 1.123661e+06
2.375899e+01 1.095420e+06
2.407061e+01 1.067885e+06
2.438632e+01 1.041037e+06
2.470617e+01 1.014860e+06
2.503022e+01 9.893362e+05
2.535851e+01 9.644498e+05
2.569111e+01 9.401849e+05
2.602807e+01 9.165261e+05
2.636945e+01 8.934583e+05
2.671531e+01 8.709668e+05
2.706571e+01 8.490372e+05
2.742070e+01 8.276556e+05
2.778035e+01 8.068083e+05
2.814471e+01 7.864820e+05
2.851386e+01 7.666637e+05
2.888784e+01 7.473409e+05
2.926673e+01 7.285011e+05
2.965059e+01 7.101323e+05
3.003948e+01 6.922229e+05
3.043348e+01 6.747613e+05
3.083264e+01 6.577364e+05
3.123704e+01 6.411374e+05
3.164674e+01 6.249537e+05
3.206182e+01 6.091748e+05
3.248234e+01 5.937908e+05
3.290837e+01 5.787917e+05
3.334000e+01 5.641680e+05
3.377728e+01 5.499104e+05
3.422030e+01 5.360097e+05
3.466913e+01 5.224570e+05
3.512385e+01 5.092437e+05
3.558453e+01 4.963613e+05
3.605125e+01 4.838015e+05
3.652410e+01 4.715564e+05
3.700315e+01 4.596180e+05
3.748848e+01 4.479788e+05
3.798017e+01 4.366313e+05
3.847832e+01 4.255681e+05
3.898299e+01 4.147823e+05
3.949429e+01 4.042669e+05
4.001230e+01 3.940152e+05
4.053709e+01 3.840205e+05
4.106877e+01 3.742766e+05
4.160743e+01 3.647770e+05
4.215315e+01 3.555158e+05
4.270602e+01 3.464870e+05
4.326615e+01 3.376848e+05
4.383363e+01 3.291035e+05
4.440855e+01 3.207377e+05
4.499100e+01 3.125819e+05
4.558110e+01 3.046309e+05
4.617894e+01 2.968796e+05
4.678462e+01 2.893231e+05
4.739824e+01 2.819564e+05
4.801991e+01 2.747749e+05
4.864974e+01 2.677738e+05
4.928782e+01 2.609488e+05
4.993428e+01 2.542954e+05
5.058921e+01 2.478093e+05
5.125274e+01 2.414863e+05
5.192496e+01 2.353224e+05
5.260600e+01 2.293136e+05
5.329598e+01 2.234560e+05
5.399501e+01 2.177459e+05
5.470320e+01 2.121796e+05
5.542068e+01 2.067534e+05
5.614757e+01 2.014639e+05
5.688400e+01 1.963076e+05
5.763009e+01 1.912813e+05
5.838596e+01 1.863817e+05
5.915174e+01 1.816056e+05
5.992757e+01 1.769499e+05
6.071358e+01 1.724116e+05
6.150989e+01 1.679878e+05
6.231665e+01 1.636756e+05
6.313399e+01 1.594723e+05
6.396205e+01 1.553750e+05
6.480097e+01 1.513813e+05
6.565089e+01 1.474883e+05
6.651196e+01 1.436937e+05
6.738433e+01 1.399950e+05
6.826813e+01 1.363898e+05
6.916353e+01 1.328758e+05
7.007068e+01 1.294505e+05
7.098972e+01 1.261120e+05
7.192081e+01 1.228579e+05
7.286412e+01 1.196861e+05
7.381980e+01 1.165946e+05
7.478801e+01 1.135814e+05
7.576892e+01 1.106446e+05
7.676270e+01 1.077821e+05
7.776952e+01 1.049922e+05
7.878953e+01 1.022730e+05
7.982293e+01 9.962276e+04
8.086988e+01 9.703975e+04
8.193056e+01 9.452227e+04
8.300516e+01 9.206869e+04
8.409384e+01 8.967740e+04
8.519681e+01 8.734684e+04
8.631425e+01 8.507550e+04
8.744634e+01 8.286187e+04
8.859327e+01 8.070452e+04
8.975526e+01 7.860203e+04
9.093248e+01 7.655302e+04
9.212514e+01 7.455616e+04
9.333344e+01 7.261013e+04
9.455760e+01 7.071366e+04
9.579781e+01 6.886550e+04
9.705428e+01 6.706444e+04
9.832724e+01 6.530929e+04
9.961689e+01 6.359891e+04
1.009235e+02 6.193216e+04
1.022472e+02 6.030795e+04
1.035882e+02 5.872521e+04
1.049469e+02 5.718290e+04
1.063233e+02 5.568000e+04
1.077179e+02 5.421552e+04
1.091307e+02 5.278849e+04
1.105620e+02 5.139797e+04
1.120122e+02 5.004304e+04
1.134813e+02 4.872280e+04
1.149697e+02 4.743639e+04
1.164777e+02 4.618294e+04
1.180054e+02 4.496164e+04
1.195531e+02 4.377166e+04
1.211212e+02 4.261222e+04
1.227098e+02 4.148255e+04
1.243192e+02 4.038190e+04
1.259498e+02 3.930954e+04
1.276017e+02 3.826475e+04
1.292753e+02 3.724684e+04
1.309709e+02 3.625513e+04
1.326887e+02 3.528895e+04
1.344290e+02 3.434767e+04
1.361922e+02 3.343066e+04
1.379785e+02 3.253729e+04
1.397882e+02 3.166698e+04
1.416216e+02 3.081914e+04
1.434791e+02 2.999321e+04
1.453610e+02 2.918862e+04
1.472675e+02 2.840484e+04
1.491991e+02 2.764135e+04
1.511560e+02 2.689762e+04
1.531385e+02 2.617317e+04
1.551471e+02 2.546749e+04
1.571820e+02 2.478012e+04
1.592436e+02 2.411059e+04
1.613322e+02 2.345846e+04
1.634482e+02 2.282327e+04
1.655920e+02 2.220459e+04
1.677639e+02 2.160202e+04
1.699642e+02 2.101514e+04
1.721935e+02 2.044355e+04
1.744519e+02 1.988687e+04
1.767400e+02 1.934471e+04
1.790581e+02 1.881671e+04
1.814067e+02 1.830251e+04
1.837860e+02 1.780175e+04
1.861965e+02 1.731410e+04
1.886386e+02 1.683921e+04
1.911128e+02 1.637678e+04
1.936194e+02 1.592647e+04
1.961589e+02 1.548798e+04
1.987317e+02 1.506101e+04
2.013383e+02 1.464526e+04
2.039790e+02 1.424045e+04
2.066544e+02 1.384631e+04
2.093648e+02 1.346255e+04
2.121108e+02 1.308891e+04
2.148929e+02 1.272514e+04
2.177114e+02 1.237097e+04
2.205669e+02 1.202618e+04
2.234598e+02 1.169051e+04
2.263907e+02 1.136373e+04
2.293600e+02 1.104562e+04
2.323683e+02 1.073595e+04
2.354160e+02 1.043451e+04
2.385037e+02 1.014109e+04
2.416319e+02 9.855471e+03
2.448011e+02 9.577467e+03
2.480119e+02 9.306878e+03
2.512648e+02 9.043512e+03
2.545603e+02 8.787186e+03
2.578991e+02 8.537717e+03
2.612817e+02 8.294930e+03
2.647087e+02 8.058651e+03
2.681806e+02 7.828715e+03
2.716980e+02 7.604957e+03
2.752616e+02 7.387218e+03
2.788719e+02 7.175342e+03
2.825295e+02 6.969179e+03
2.862352e+02 6.768582e+03
2.899894e+02 6.573405e+03
2.937929e+02 6.383509e+03
2.976462e+02 6.198757e+03
3.015501e+02 6.019017e+03
3.055052e+02 5.844158e+03
3.095122e+02 5.674053e+03
3.135717e+02 5.508581e+03
3.176845e+02 5.347619e+03
3.218512e+02 5.191052e+03
3.260726e+02 5.038764e+03
3.303494e+02 4.890645e+03
3.346822e+02 4.746586e+03
3.390718e+02 4.606481e+03
3.435191e+02 4.470228e+03
3.480246e+02 4.337725e+03
3.525893e+02 4.208876e+03
3.572138e+02 4.083583e+03
3.618990e+02 3.961755e+03
3.666457e+02 3.843301e+03
3.714546e+02 3.728132e+03
3.763265e+02 3.616163e+03
3.812624e+02 3.507309e+03
3.862630e+02 3.401488e+03
3.913292e+02 3.298622e+03
3.964618e+02 3.198631e+03
4.016618e+02 3.101441e+03
4.069299e+02 3.006977e+03
4.122672e+02 2.915169e+03
4.176744e+02 2.825944e+03
4.231526e+02 2.739237e+03
4.287027e+02 2.654978e+03
4.343255e+02 2.573105e+03
4.400221e+02 2.493554e+03
4.457933e+02 2.416263e+03
4.516403e+02 2.341171e+03
4.575640e+02 2.268221e+03
4.635654e+02 2.197356e+03
4.696455e+02 2.128520e+03
4.758053e+02 2.061659e+03
4.820459e+02 1.996719e+03
4.883684e+02 1.933651e+03
4.947738e+02 1.872403e+03
5.012632e+02 1.812927e+03
5.078377e+02 1.755175e+03
5.144985e+02 1.699101e+03
5.212466e+02 1.644660e+03
5.280832e+02 1.591807e+03
5.350095e+02 1.540501e+03
5.420266e+02 1.490699e+03
5.491358e+02 1.442360e+03
5.563382e+02 1.395445e+03
5.636351e+02 1.349915e+03
5.710277e+02 1.305732e+03
5.785172e+02 1.262861e+03
5.861050e+02 1.221264e+03
5.937923e+02 1.180908e+03
6.015804e+02 1.141758e+03
6.094707e+02 1.103782e+03
6.174645e+02 1.066947e+03
6.255631e+02 1.031222e+03
6.337679e+02 9.965759e+02
6.420804e+02 9.629795e+02
6.505018e+02 9.304036e+02
6.590337e+02 8.988202e+02
6.676776e+02 8.682015e+02
6.764348e+02 8.385210e+02
6.853068e+02 8.097523e+02
6.942953e+02 7.818702e+02
7.034016e+02 7.548499e+02
7.126273e+02 7.286673e+02
7.219741e+02 7.032988e+02
7.314434e+02 6.787217e+02
7.410370e+02 6.549136e+02
7.507563e+02 6.318528e+02
7.606032e+02 6.095183e+02
7.705792e+02 5.878893e+02
7.806861e+02 5.669460e+02
7.909255e+02 5.466687e+02
8.012992e+02 5.270385e+02
8.118089e+02 5.080368e+02
8.224566e+02 4.896457e+02
8.332438e+02 4.718476e+02
8.441726e+02 4.546254e+02
8.552447e+02 4.379624e+02
8.664620e+02 4.218425e+02
8.778264e+02 4.062500e+02
8.893399e+02 3.911694e+02
9.010044e+02 3.765858e+02
9.128219e+02 3.624847e+02
9.247944e+02 3.488518e+02
9.369239e+02 3.356735e+02
9.492125e+02 3.229363e+02
9.616623e+02 3.106271e+02
9.742754e+02 2.987332e+02
9.870539e+02 2.872422e+02
1.000000e+03 2.761421e+02
