# Energy(MeV) Phi16 Phi84
5.000000e-02 1.585239e+11 2.267884e+11
5.100225e-02 1.554174e+11 2.220774e+11
5.202458e-02 1.524187e+11 2.174604e+11
5.306741e-02 1.495110e+11 2.129019e+11
5.413114e-02 1.467060e+11 2.084314e+11
5.521620e-02 1.440271e+11 2.040683e+11
5.632300e-02 1.413734e+11 1.997966e+11
5.745199e-02 1.387775e+11 1.955988e+11
5.860361e-02 1.361292e+11 1.914889e+11
5.977832e-02 1.335765e+11 1.874722e+11
6.097657e-02 1.310681e+11 1.835844e+11
6.219884e-02 1.285496e+11 1.797405e+11
6.344561e-02 1.261370e+11 1.759964e+11
6.471737e-02 1.237694e+11 1.723529e+11
6.601463e-02 1.214642e+11 1.687845e+11
6.733789e-02 1.190608e+11 1.653404e+11
6.868767e-02 1.168176e+11 1.620911e+11
7.006451e-02 1.145781e+11 1.587207e+11
7.146895e-02 1.124109e+11 1.553827e+11
7.290154e-02 1.102982e+11 1.520770e+11
7.436284e-02 1.082400e+11 1.488474e+11
7.585344e-02 1.061174e+11 1.457104e+11
7.737392e-02 1.041925e+11 1.425841e+11
7.892487e-02 1.022767e+11 1.395427e+11
8.050691e-02 1.003443e+11 1.365482e+11
8.212067e-02 9.841305e+10 1.336608e+11
8.376677e-02 9.655036e+10 1.308786e+11
8.544587e-02 9.472474e+10 1.281980e+11
8.715862e-02 9.286110e+10 1.255217e+11
8.890571e-02 9.112491e+10 1.229096e+11
9.068782e-02 8.943312e+10 1.203678e+11
9.250565e-02 8.772890e+10 1.178865e+11
9.435992e-02 8.605480e+10 1.154466e+11
9.625136e-02 8.442136e+10 1.130569e+11
9.818071e-02 8.281871e+10 1.107077e+11
1.001487e-01 8.124627e+10 1.083737e+11
1.021562e-01 7.970632e+10 1.060769e+11
1.042039e-01 7.820133e+10 1.038222e+11
1.062927e-01 7.673305e+10 1.016151e+11
1.084233e-01 7.524836e+10 9.950204e+10
1.105966e-01 7.384104e+10 9.742792e+10
1.128135e-01 7.241957e+10 9.537696e+10
1.150749e-01 7.100101e+10 9.333760e+10
1.173816e-01 6.960007e+10 9.138680e+10
1.197345e-01 6.830074e+10 8.945303e+10
1.221345e-01 6.703575e+10 8.756148e+10
1.245827e-01 6.574164e+10 8.570969e+10
1.270800e-01 6.447868e+10 8.396028e+10
1.296273e-01 6.322036e+10 8.224517e+10
1.322256e-01 6.199504e+10 8.053199e+10
1.348761e-01 6.079208e+10 7.883170e+10
1.375797e-01 5.962226e+10 7.717701e+10
1.403374e-01 5.846915e+10 7.554717e+10
1.431505e-01 5.732649e+10 7.394567e+10
1.460199e-01 5.620599e+10 7.243618e+10
1.489469e-01 5.507781e+10 7.089947e+10
1.519325e-01 5.402007e+10 6.942622e+10
1.549780e-01 5.299650e+10 6.796576e+10
1.580845e-01 5.194870e+10 6.651426e+10
1.612533e-01 5.091268e+10 6.509548e+10
1.644856e-01 4.988959e+10 6.374664e+10
1.677827e-01 4.890609e+10 6.239478e+10
1.711459e-01 4.801196e+10 6.112291e+10
1.745765e-01 4.710926e+10 5.987885e+10
1.780759e-01 4.620379e+10 5.863136e+10
1.816454e-01 4.531134e+10 5.742284e+10
1.852865e-01 4.441311e+10 5.629317e+10
1.890005e-01 4.356019e+10 5.509988e+10
1.927890e-01 4.269180e+10 5.394170e+10
1.966535e-01 4.183174e+10 5.285989e+10
2.005954e-01 4.097633e+10 5.180312e+10
2.046163e-01 4.015118e+10 5.072898e+10
2.087178e-01 3.937763e+10 4.970227e+10
2.129015e-01 3.865877e+10 4.868500e+10
2.171691e-01 3.791095e+10 4.766878e+10
2.215223e-01 3.718488e+10 4.668651e+10
2.259627e-01 3.647682e+10 4.569313e+10
2.304921e-01 3.577400e+10 4.476408e+10
2.351123e-01 3.506621e+10 4.383680e+10
2.398251e-01 3.438186e+10 4.289677e+10
2.446324e-01 3.373762e+10 4.201678e+10
2.495360e-01 3.306447e+10 4.114787e+10
2.545379e-01 3.239920e+10 4.029001e+10
2.596401e-01 3.176708e+10 3.945666e+10
2.648446e-01 3.114079e+10 3.862369e+10
2.701534e-01 3.053416e+10 3.783373e+10
2.755686e-01 2.993447e+10 3.706418e+10
2.810923e-01 2.932553e+10 3.628441e+10
2.867268e-01 2.874805e+10 3.554270e+10
2.924742e-01 2.818190e+10 3.481237e+10
2.983368e-01 2.763047e+10 3.408541e+10
3.043170e-01 2.710105e+10 3.334806e+10
3.104170e-01 2.658018e+10 3.267035e+10
3.166393e-01 2.607941e+10 3.197891e+10
3.229863e-01 2.558773e+10 3.130199e+10
3.294605e-01 2.509826e+10 3.064875e+10
3.360645e-01 2.461340e+10 2.998595e+10
3.428009e-01 2.413833e+10 2.933450e+10
3.496723e-01 2.367058e+10 2.871587e+10
3.566815e-01 2.321452e+10 2.811727e+10
3.638311e-01 2.274873e+10 2.753129e+10
3.711241e-01 2.230275e+10 2.698008e+10
3.785633e-01 2.187206e+10 2.641345e+10
3.861515e-01 2.143258e+10 2.589728e+10
3.938919e-01 2.099969e+10 2.536730e+10
4.017874e-01 2.057587e+10 2.483630e+10
4.098412e-01 2.017350e+10 2.432247e+10
4.180565e-01 1.975910e+10 2.381014e+10
4.264364e-01 1.937279e+10 2.331080e+10
4.349843e-01 1.899536e+10 2.282168e+10
4.437035e-01 1.861239e+10 2.233785e+10
4.525975e-01 1.822971e+10 2.187053e+10
4.616698e-01 1.785550e+10 2.140385e+10
4.709239e-01 1.749360e+10 2.096284e+10
4.803635e-01 1.713745e+10 2.053135e+10
4.899924e-01 1.677140e+10 2.010896e+10
4.998143e-01 1.643882e+10 1.969707e+10
5.098330e-01 1.609671e+10 1.927590e+10
5.200526e-01 1.576338e+10 1.888745e+10
5.304770e-01 1.546140e+10 1.847840e+10
5.411103e-01 1.515019e+10 1.810255e+10
5.519569e-01 1.484723e+10 1.773433e+10
5.630208e-01 1.454134e+10 1.736444e+10
5.743065e-01 1.424733e+10 1.700399e+10
5.858184e-01 1.396192e+10 1.664507e+10
5.975611e-01 1.367838e+10 1.630491e+10
6.095392e-01 1.340259e+10 1.597052e+10
6.217573e-01 1.312242e+10 1.564426e+10
6.342204e-01 1.285221e+10 1.531372e+10
6.469333e-01 1.258097e+10 1.498894e+10
6.599011e-01 1.232477e+10 1.467724e+10
6.731287e-01 1.207241e+10 1.437181e+10
6.866215e-01 1.182657e+10 1.406648e+10
7.003848e-01 1.158419e+10 1.376380e+10
7.144240e-01 1.136654e+10 1.347271e+10
7.287445e-01 1.113965e+10 1.319834e+10
7.433522e-01 1.090951e+10 1.291070e+10
7.582526e-01 1.068274e+10 1.264403e+10
7.734517e-01 1.045760e+10 1.237962e+10
7.889555e-01 1.023934e+10 1.214303e+10
8.047701e-01 1.002604e+10 1.189365e+10
8.209016e-01 9.812559e+09 1.164833e+10
8.373565e-01 9.606719e+09 1.140634e+10
8.541413e-01 9.411653e+09 1.117089e+10
8.712625e-01 9.218037e+09 1.094163e+10
8.887268e-01 9.032333e+09 1.070886e+10
9.065413e-01 8.839691e+09 1.048552e+10
9.247129e-01 8.657096e+09 1.026417e+10
9.432487e-01 8.468802e+09 1.005275e+10
9.621560e-01 8.283277e+09 9.844121e+09
9.814423e-01 8.104689e+09 9.641600e+09
1.001115e+00 7.936372e+09 9.442744e+09
1.021183e+00 7.764068e+09 9.242906e+09
1.041652e+00 7.598406e+09 9.047551e+09
1.062532e+00 7.435704e+09 8.865252e+09
1.083830e+00 7.273808e+09 8.678822e+09
1.105556e+00 7.115887e+09 8.498258e+09
1.127716e+00 6.963420e+09 8.316625e+09
1.150321e+00 6.812055e+09 8.143846e+09
1.173379e+00 6.666300e+09 7.973932e+09
1.196900e+00 6.522986e+09 7.810391e+09
1.220892e+00 6.372758e+09 7.643091e+09
1.245364e+00 6.239624e+09 7.482411e+09
1.270327e+00 6.102717e+09 7.321972e+09
1.295791e+00 5.966898e+09 7.163496e+09
1.321765e+00 5.833843e+09 7.013268e+09
1.348260e+00 5.708075e+09 6.869307e+09
1.375286e+00 5.581927e+09 6.726684e+09
1.402853e+00 5.460520e+09 6.583049e+09
1.430973e+00 5.342395e+09 6.445220e+09
1.459657e+00 5.221357e+09 6.306168e+09
1.488916e+00 5.102105e+09 6.168768e+09
1.518761e+00 4.986875e+09 6.035358e+09
1.549204e+00 4.877661e+09 5.907533e+09
1.580258e+00 4.766153e+09 5.783621e+09
1.611934e+00 4.661678e+09 5.658479e+09
1.644245e+00 4.560044e+09 5.536286e+09
1.677204e+00 4.460368e+09 5.416480e+09
1.710823e+00 4.362101e+09 5.303268e+09
1.745117e+00 4.266869e+09 5.186220e+09
1.780097e+00 4.170994e+09 5.077491e+09
1.815779e+00 4.081266e+09 4.969327e+09
1.852176e+00 3.989262e+09 4.860222e+09
1.889303e+00 3.895321e+09 4.753876e+09
1.927174e+00 3.806661e+09 4.649261e+09
1.965804e+00 3.718527e+09 4.544100e+09
2.005209e+00 3.634333e+09 4.446501e+09
2.045403e+00 3.553614e+09 4.347860e+09
2.086403e+00 3.471950e+09 4.250270e+09
2.128224e+00 3.390802e+09 4.154404e+09
2.170885e+00 3.315370e+09 4.064065e+09
2.214400e+00 3.241359e+09 3.972465e+09
2.258787e+00 3.164116e+09 3.885941e+09
2.304064e+00 3.090399e+09 3.800455e+09
2.350249e+00 3.017958e+09 3.715728e+09
2.397360e+00 2.947298e+09 3.632889e+09
2.445415e+00 2.876651e+09 3.553584e+09
2.494433e+00 2.807521e+09 3.472036e+09
2.544434e+00 2.741648e+09 3.391511e+09
2.595437e+00 2.679235e+09 3.312771e+09
2.647462e+00 2.617402e+09 3.237655e+09
2.700530e+00 2.554694e+09 3.163776e+09
2.754662e+00 2.494202e+09 3.090414e+09
2.809879e+00 2.436292e+09 3.019130e+09
2.866203e+00 2.378823e+09 2.949970e+09
2.923656e+00 2.323402e+09 2.882185e+09
2.982260e+00 2.269002e+09 2.814962e+09
3.042039e+00 2.214001e+09 2.746394e+09
3.103017e+00 2.159940e+09 2.680366e+09
3.165216e+00 2.107067e+09 2.618201e+09
3.228663e+00 2.055370e+09 2.555598e+09
3.293381e+00 2.004964e+09 2.496248e+09
3.359397e+00 1.954773e+09 2.438183e+09
3.426736e+00 1.905827e+09 2.378716e+09
3.495424e+00 1.859140e+09 2.322065e+09
3.565490e+00 1.812266e+09 2.264295e+09
3.636960e+00 1.766917e+09 2.209672e+09
3.709862e+00 1.723010e+09 2.155614e+09
3.784226e+00 1.680318e+09 2.103246e+09
3.860081e+00 1.638132e+09 2.051699e+09
3.937456e+00 1.596271e+09 2.000751e+09
4.016382e+00 1.555775e+09 1.952006e+09
4.096890e+00 1.516608e+09 1.904984e+09
4.179012e+00 1.478198e+09 1.858608e+09
4.262780e+00 1.440623e+09 1.811966e+09
4.348227e+00 1.404530e+09 1.766398e+09
4.435387e+00 1.369329e+09 1.723558e+09
4.524294e+00 1.334139e+09 1.678920e+09
4.614983e+00 1.300447e+09 1.638228e+09
4.707490e+00 1.266554e+09 1.598039e+09
4.801851e+00 1.234109e+09 1.557241e+09
4.898104e+00 1.201907e+09 1.517913e+09
4.996286e+00 1.169712e+09 1.480078e+09
5.096436e+00 1.138818e+09 1.443583e+09
5.198594e+00 1.109323e+09 1.407270e+09
5.302799e+00 1.079876e+09 1.370435e+09
5.409093e+00 1.050786e+09 1.334032e+09
5.517518e+00 1.022351e+09 1.298792e+09
5.628116e+00 9.949232e+08 1.263865e+09
5.740932e+00 9.681232e+08 1.230890e+09
5.856008e+00 9.419259e+08 1.199425e+09
5.973391e+00 9.159497e+08 1.166728e+09
6.093127e+00 8.903464e+08 1.134646e+09
6.215264e+00 8.658693e+08 1.103609e+09
6.339848e+00 8.416637e+08 1.073261e+09
6.466930e+00 8.183203e+08 1.043465e+09
6.596559e+00 7.947975e+08 1.015223e+09
6.728787e+00 7.729063e+08 9.865564e+08
6.863665e+00 7.513669e+08 9.594329e+08
7.001246e+00 7.300357e+08 9.324463e+08
7.141586e+00 7.094535e+08 9.060352e+08
7.284738e+00 6.893342e+08 8.802100e+08
7.430760e+00 6.696868e+08 8.543211e+08
7.579709e+00 6.500827e+08 8.289746e+08
7.731644e+00 6.309615e+08 8.045520e+08
7.886624e+00 6.122718e+08 7.807995e+08
8.044711e+00 5.944535e+08 7.570455e+08
8.205967e+00 5.766149e+08 7.354919e+08
8.370455e+00 5.591979e+08 7.139734e+08
8.538240e+00 5.423451e+08 6.919403e+08
8.709388e+00 5.258847e+08 6.704807e+08
8.883967e+00 5.097131e+08 6.493908e+08
9.062045e+00 4.938821e+08 6.302752e+08
9.243693e+00 4.784114e+08 6.112306e+08
9.428983e+00 4.633997e+08 5.917553e+08
9.617986e+00 4.489859e+08 5.731626e+08
9.810778e+00 4.347637e+08 5.543408e+08
1.000743e+01 4.208359e+08 5.369857e+08
1.020803e+01 4.070382e+08 5.197849e+08
1.041265e+01 3.935702e+08 5.022788e+08
1.062137e+01 3.806698e+08 4.855250e+08
1.083428e+01 3.676889e+08 4.689009e+08
1.105145e+01 3.552221e+08 4.529734e+08
1.127297e+01 3.431382e+08 4.371729e+08
1.149894e+01 3.313157e+08 4.215958e+08
1.172944e+01 3.198047e+08 4.071796e+08
1.196455e+01 3.087014e+08 3.931216e+08
1.220438e+01 2.980621e+08 3.793419e+08
1.244902e+01 2.877021e+08 3.656655e+08
1.269856e+01 2.776156e+08 3.527866e+08
1.295310e+01 2.676482e+08 3.402919e+08
1.321274e+01 2.579695e+08 3.282364e+08
1.347759e+01 2.488707e+08 3.162954e+08
1.374775e+01 2.400281e+08 3.046527e+08
1.402332e+01 2.311803e+08 2.934702e+08
1.430442e+01 2.227316e+08 2.826493e+08
1.459115e+01 2.142157e+08 2.718953e+08
1.488362e+01 2.064464e+08 2.618249e+08
1.518197e+01 1.987148e+08 2.518041e+08
1.548629e+01 1.910184e+08 2.423021e+08
1.579671e+01 1.835172e+08 2.328780e+08
1.611335e+01 1.764912e+08 2.237617e+08
1.643634e+01 1.696301e+08 2.146275e+08
1.676581e+01 1.627429e+08 2.059382e+08
1.710188e+01 1.563749e+08 1.978833e+08
1.744468e+01 1.500788e+08 1.898217e+08
1.779436e+01 1.437820e+08 1.818644e+08
1.815105e+01 1.378501e+08 1.744264e+08
1.851488e+01 1.317737e+08 1.669146e+08
1.888601e+01 1.261457e+08 1.597306e+08
1.926458e+01 1.205276e+08 1.529459e+08
1.965074e+01 1.151438e+08 1.465514e+08
2.004464e+01 1.098626e+08 1.400509e+08
2.044643e+01 1.049086e+08 1.336845e+08
2.085628e+01 1.000845e+08 1.278692e+08
2.127434e+01 9.555178e+07 1.220884e+08
2.170078e+01 9.104441e+07 1.164851e+08
2.213577e+01 8.664882e+07 1.111280e+08
2.257948e+01 8.224308e+07 1.058936e+08
2.303209e+01 7.804229e+07 1.008107e+08
2.349376e+01 7.406351e+07 9.603095e+07
2.396469e+01 7.060856e+07 9.146679e+07
2.444506e+01 6.711425e+07 8.689132e+07
2.493506e+01 6.376559e+07 8.259513e+07
2.543488e+01 6.061474e+07 7.844165e+07
2.594472e+01 5.741713e+07 7.449323e+07
2.646478e+01 5.445224e+07 7.087650e+07
2.699527e+01 5.153164e+07 6.720724e+07
2.753639e+01 4.879784e+07 6.375754e+07
2.808835e+01 4.616323e+07 6.038407e+07
2.865138e+01 4.366969e+07 5.710900e+07
2.922570e+01 4.119524e+07 5.400452e+07
2.981152e+01 3.873180e+07 5.112869e+07
3.040909e+01 3.646341e+07 4.836021e+07
3.101864e+01 3.431506e+07 4.565335e+07
3.164041e+01 3.229038e+07 4.304508e+07
3.227464e+01 3.026030e+07 4.062464e+07
3.292158e+01 2.838544e+07 3.840912e+07
3.358149e+01 2.662392e+07 3.615636e+07
3.425463e+01 2.492313e+07 3.397685e+07
3.494126e+01 2.334450e+07 3.198581e+07
3.564165e+01 2.184023e+07 3.009394e+07
3.635609e+01 2.040986e+07 2.829576e+07
3.708484e+01 1.909187e+07 2.657929e+07
3.782820e+01 1.782968e+07 2.495847e+07
3.858647e+01 1.659807e+07 2.336764e+07
3.935993e+01 1.543326e+07 2.186078e+07
4.014890e+01 1.434662e+07 2.041731e+07
4.095368e+01 1.335115e+07 1.911486e+07
4.177459e+01 1.245025e+07 1.791581e+07
4.261196e+01 1.159796e+07 1.672417e+07
4.346611e+01 1.079685e+07 1.564866e+07
4.433739e+01 1.004639e+07 1.459543e+07
4.522613e+01 9.353748e+06 1.356477e+07
4.613268e+01 8.713605e+06 1.260332e+07
4.705741e+01 8.113541e+06 1.170133e+07
4.800067e+01 7.550613e+06 1.088920e+07
4.896284e+01 7.024066e+06 1.012839e+07
4.994430e+01 6.541804e+06 9.419091e+06
5.094543e+01 6.084100e+06 8.759589e+06
5.196662e+01 5.667452e+06 8.140011e+06
5.300829e+01 5.280591e+06 7.551040e+06
5.407084e+01 4.911640e+06 7.003599e+06
5.515468e+01 4.569244e+06 6.495784e+06
5.626026e+01 4.253446e+06 6.020842e+06
5.738799e+01 3.961834e+06 5.585792e+06
5.853833e+01 3.689405e+06 5.185104e+06
5.971172e+01 3.432838e+06 4.806625e+06
6.090864e+01 3.193653e+06 4.458065e+06
6.212955e+01 2.971351e+06 4.136009e+06
6.337493e+01 2.765990e+06 3.834794e+06
6.464528e+01 2.574868e+06 3.559503e+06
6.594109e+01 2.396802e+06 3.301156e+06
6.726287e+01 2.231882e+06 3.061496e+06
6.861115e+01 2.079541e+06 2.839352e+06
6.998645e+01 1.935857e+06 2.631857e+06
7.138933e+01 1.801544e+06 2.439861e+06
7.282032e+01 1.675683e+06 2.259016e+06
7.428000e+01 1.561384e+06 2.094212e+06
7.576894e+01 1.453004e+06 1.943616e+06
7.728772e+01 1.352212e+06 1.802689e+06
7.883694e+01 1.257978e+06 1.672661e+06
8.041722e+01 1.170460e+06 1.552756e+06
8.202918e+01 1.089268e+06 1.440661e+06
8.367345e+01 1.013811e+06 1.336258e+06
8.535068e+01 9.436499e+05 1.242141e+06
8.706153e+01 8.779161e+05 1.152424e+06
8.880667e+01 8.176190e+05 1.068639e+06
9.058679e+01 7.608761e+05 9.915995e+05
9.240260e+01 7.078376e+05 9.195251e+05
9.425480e+01 6.596651e+05 8.533007e+05
9.614413e+01 6.137239e+05 7.921447e+05
9.807133e+01 5.709759e+05 7.358731e+05
1.000372e+02 5.312900e+05 6.824953e+05
1.020424e+02 4.937057e+05 6.341962e+05
1.040878e+02 4.596816e+05 5.880075e+05
1.061743e+02 4.273065e+05 5.456930e+05
1.083025e+02 3.973699e+05 5.071092e+05
1.104734e+02 3.694615e+05 4.706466e+05
1.126879e+02 3.427795e+05 4.367094e+05
1.149467e+02 3.189082e+05 4.053351e+05
1.172508e+02 2.967360e+05 3.762812e+05
1.196011e+02 2.757914e+05 3.487504e+05
1.219985e+02 2.564716e+05 3.240854e+05
1.244439e+02 2.382245e+05 3.007433e+05
1.269384e+02 2.211488e+05 2.790282e+05
1.294828e+02 2.055814e+05 2.588442e+05
1.320783e+02 1.911807e+05 2.399478e+05
1.347258e+02 1.777163e+05 2.229375e+05
1.374264e+02 1.655135e+05 2.070503e+05
1.401811e+02 1.541552e+05 1.920943e+05
1.429910e+02 1.431865e+05 1.784696e+05
1.458573e+02 1.331011e+05 1.656602e+05
1.487810e+02 1.237423e+05 1.539562e+05
1.517633e+02 1.150269e+05 1.429316e+05
1.548053e+02 1.070297e+05 1.326184e+05
1.579084e+02 9.959100e+04 1.229800e+05
1.610737e+02 9.252252e+04 1.141983e+05
1.643024e+02 8.605071e+04 1.061199e+05
1.675958e+02 7.990271e+04 9.862366e+04
1.709552e+02 7.428229e+04 9.167691e+04
1.743820e+02 6.902993e+04 8.516749e+04
1.778775e+02 6.418440e+04 7.911791e+04
1.814430e+02 5.971122e+04 7.355019e+04
1.850801e+02 5.545215e+04 6.839825e+04
1.887900e+02 5.156765e+04 6.360855e+04
1.925743e+02 4.787774e+04 5.908976e+04
1.964344e+02 4.446371e+04 5.492131e+04
2.003719e+02 4.125540e+04 5.099227e+04
2.043883e+02 3.831200e+04 4.740939e+04
2.084853e+02 3.557244e+04 4.403360e+04
2.126644e+02 3.299050e+04 4.089970e+04
2.169272e+02 3.064758e+04 3.798990e+04
2.212755e+02 2.850663e+04 3.532228e+04
2.257109e+02 2.649485e+04 3.279839e+04
2.302353e+02 2.462150e+04 3.048442e+04
2.348503e+02 2.284863e+04 2.834239e+04
2.395579e+02 2.122946e+04 2.634898e+04
2.443598e+02 1.971417e+04 2.445975e+04
2.492580e+02 1.829527e+04 2.270511e+04
2.542544e+02 1.698397e+04 2.110419e+04
2.593509e+02 1.577781e+04 1.961467e+04
2.645495e+02 1.465674e+04 1.823553e+04
2.698524e+02 1.359894e+04 1.694909e+04
2.752616e+02 1.263048e+04 1.577423e+04
2.807792e+02 1.172262e+04 1.467215e+04
2.864074e+02 1.089667e+04 1.365244e+04
2.921484e+02 1.011815e+04 1.269819e+04
2.980045e+02 9.396719e+03 1.180525e+04
3.039780e+02 8.722525e+03 1.098009e+04
3.100712e+02 8.094229e+03 1.020404e+04
3.162865e+02 7.512093e+03 9.483935e+03
3.226265e+02 6.974289e+03 8.824396e+03
3.290935e+02 6.472912e+03 8.212151e+03
3.356901e+02 6.004521e+03 7.633300e+03
3.424190e+02 5.579105e+03 7.094894e+03
3.492828e+02 5.177753e+03 6.595447e+03
3.562841e+02 4.805279e+03 6.136018e+03
3.634258e+02 4.460833e+03 5.714254e+03
3.707107e+02 4.138496e+03 5.315151e+03
3.781415e+02 3.837623e+03 4.940119e+03
3.857213e+02 3.560634e+03 4.586971e+03
3.934531e+02 3.304398e+03 4.269106e+03
4.013398e+02 3.062160e+03 3.970448e+03
4.093847e+02 2.839517e+03 3.693407e+03
4.175907e+02 2.633738e+03 3.438607e+03
4.259613e+02 2.442367e+03 3.196287e+03
4.344997e+02 2.266489e+03 2.969940e+03
4.432092e+02 2.103587e+03 2.762375e+03
4.520933e+02 1.952014e+03 2.574952e+03
4.611555e+02 1.812412e+03 2.391573e+03
4.703993e+02 1.680791e+03 2.222254e+03
4.798284e+02 1.559078e+03 2.066248e+03
4.894465e+02 1.444679e+03 1.920547e+03
4.992574e+02 1.339413e+03 1.786473e+03
5.092650e+02 1.241668e+03 1.662163e+03
5.194732e+02 1.150946e+03 1.547246e+03
5.298860e+02 1.069177e+03 1.442036e+03
5.405075e+02 9.923710e+02 1.341758e+03
5.513420e+02 9.207397e+02 1.248633e+03
5.623936e+02 8.536774e+02 1.161759e+03
5.736667e+02 7.912787e+02 1.081609e+03
5.851658e+02 7.344257e+02 1.006367e+03
5.968954e+02 6.810996e+02 9.362588e+02
6.088601e+02 6.316456e+02 8.715609e+02
6.210647e+02 5.860753e+02 8.114771e+02
6.335139e+02 5.436019e+02 7.548700e+02
6.462126e+02 5.044447e+02 7.026291e+02
6.591659e+02 4.679698e+02 6.529495e+02
6.723788e+02 4.347002e+02 6.076160e+02
6.858566e+02 4.036480e+02 5.653501e+02
6.996046e+02 3.742474e+02 5.259781e+02
7.136281e+02 3.473838e+02 4.894363e+02
7.279327e+02 3.227232e+02 4.554130e+02
7.425240e+02 2.993116e+02 4.240621e+02
7.574079e+02 2.778435e+02 3.947933e+02
7.725901e+02 2.577694e+02 3.674348e+02
7.880766e+02 2.389663e+02 3.420484e+02
8.038735e+02 2.214019e+02 3.183854e+02
8.199871e+02 2.054394e+02 2.963795e+02
8.364237e+02 1.906525e+02 2.761036e+02
8.531897e+02 1.768560e+02 2.569637e+02
8.702918e+02 1.640199e+02 2.388409e+02
8.877368e+02 1.520577e+02 2.222664e+02
9.055314e+02 1.410512e+02 2.069526e+02
9.236827e+02 1.309913e+02 1.927857e+02
9.421978e+02 1.215930e+02 1.795288e+02
9.610841e+02 1.128116e+02 1.670693e+02
9.803490e+02 1.046127e+02 1.555462e+02
1.000000e+03 9.691265e+01 1.448070e+02
