# Energy(MeV) Phi16_Sferica Phi84_Sferica
1.500000e+00 9.653992e+09 1.196657e+10
1.519674e+00 9.503260e+09 1.175710e+10
1.539606e+00 9.354458e+09 1.155199e+10
1.559799e+00 9.207883e+09 1.135298e+10
1.580257e+00 9.063915e+09 1.115788e+10
1.600984e+00 8.922101e+09 1.096553e+10
1.621982e+00 8.781255e+09 1.077336e+10
1.643256e+00 8.642378e+09 1.058944e+10
1.664809e+00 8.505592e+09 1.040242e+10
1.686644e+00 8.371006e+09 1.022134e+10
1.708766e+00 8.239077e+09 1.004306e+10
1.731178e+00 8.108180e+09 9.869733e+09
1.753884e+00 7.979196e+09 9.699018e+09
1.776888e+00 7.852199e+09 9.529825e+09
1.800193e+00 7.726942e+09 9.362188e+09
1.823805e+00 7.603997e+09 9.197564e+09
1.847725e+00 7.482701e+09 9.037644e+09
1.871960e+00 7.362500e+09 8.878354e+09
1.896512e+00 7.244419e+09 8.719572e+09
1.921387e+00 7.128749e+09 8.565160e+09
1.946588e+00 7.015271e+09 8.412992e+09
1.972119e+00 6.903030e+09 8.265846e+09
1.997985e+00 6.793077e+09 8.118609e+09
2.024190e+00 6.683977e+09 7.972186e+09
2.050740e+00 6.579226e+09 7.832511e+09
2.077637e+00 6.476316e+09 7.693657e+09
2.104887e+00 6.373159e+09 7.555048e+09
2.132495e+00 6.271494e+09 7.423922e+09
2.160464e+00 6.171381e+09 7.292165e+09
2.188801e+00 6.073304e+09 7.162351e+09
2.217509e+00 5.976507e+09 7.036469e+09
2.246593e+00 5.881141e+09 6.911390e+09
2.276059e+00 5.787043e+09 6.790705e+09
2.305912e+00 5.694347e+09 6.672538e+09
2.336156e+00 5.603036e+09 6.555840e+09
2.366797e+00 5.513985e+09 6.440086e+09
2.397840e+00 5.428009e+09 6.326664e+09
2.429290e+00 5.342079e+09 6.214698e+09
2.461152e+00 5.254407e+09 6.103220e+09
2.493432e+00 5.170302e+09 5.994587e+09
2.526136e+00 5.087727e+09 5.888504e+09
2.559268e+00 5.008371e+09 5.784035e+09
2.592835e+00 4.929232e+09 5.680677e+09
2.626843e+00 4.851245e+09 5.578120e+09
2.661296e+00 4.770615e+09 5.476867e+09
2.696202e+00 4.692625e+09 5.378515e+09
2.731565e+00 4.614127e+09 5.281628e+09
2.767392e+00 4.535830e+09 5.184840e+09
2.803689e+00 4.459989e+09 5.091695e+09
2.840462e+00 4.388817e+09 5.001513e+09
2.877717e+00 4.316985e+09 4.911283e+09
2.915461e+00 4.244813e+09 4.821264e+09
2.953700e+00 4.174914e+09 4.733881e+09
2.992440e+00 4.106070e+09 4.649670e+09
3.031689e+00 4.038532e+09 4.566309e+09
3.071452e+00 3.969993e+09 4.484618e+09
3.111737e+00 3.903209e+09 4.403812e+09
3.152550e+00 3.838763e+09 4.325045e+09
3.193899e+00 3.772156e+09 4.246450e+09
3.235790e+00 3.708836e+09 4.170123e+09
3.278230e+00 3.648572e+09 4.095125e+09
3.321227e+00 3.588788e+09 4.020971e+09
3.364788e+00 3.529508e+09 3.947493e+09
3.408920e+00 3.470908e+09 3.875551e+09
3.453631e+00 3.411898e+09 3.805988e+09
3.498929e+00 3.354258e+09 3.736450e+09
3.544820e+00 3.297417e+09 3.668016e+09
3.591314e+00 3.242752e+09 3.601341e+09
3.638417e+00 3.188120e+09 3.536398e+09
3.686138e+00 3.133600e+09 3.471555e+09
3.734485e+00 3.080165e+09 3.407222e+09
3.783467e+00 3.028611e+09 3.344377e+09
3.833090e+00 2.978245e+09 3.282615e+09
3.883365e+00 2.927577e+09 3.221636e+09
3.934298e+00 2.876791e+09 3.163536e+09
3.985900e+00 2.827677e+09 3.105027e+09
4.038179e+00 2.779092e+09 3.048656e+09
4.091143e+00 2.730980e+09 2.994546e+09
4.144803e+00 2.684207e+09 2.940698e+09
4.199165e+00 2.638547e+09 2.887261e+09
4.254241e+00 2.593497e+09 2.834916e+09
4.310040e+00 2.548235e+09 2.783712e+09
4.366570e+00 2.505135e+09 2.732167e+09
4.423841e+00 2.462427e+09 2.680798e+09
4.481864e+00 2.419430e+09 2.630126e+09
4.540648e+00 2.377393e+09 2.581404e+09
4.600202e+00 2.335146e+09 2.533937e+09
4.660538e+00 2.294261e+09 2.486778e+09
4.721665e+00 2.253830e+09 2.440507e+09
4.783594e+00 2.213722e+09 2.394436e+09
4.846336e+00 2.173934e+09 2.350014e+09
4.909900e+00 2.134708e+09 2.306194e+09
4.974297e+00 2.096907e+09 2.263813e+09
5.039540e+00 2.058867e+09 2.221778e+09
5.105638e+00 2.021706e+09 2.180002e+09
5.172603e+00 1.984686e+09 2.139012e+09
5.240446e+00 1.948080e+09 2.099384e+09
5.309180e+00 1.913199e+09 2.060612e+09
5.378814e+00 1.878810e+09 2.021017e+09
5.449362e+00 1.844346e+09 1.982239e+09
5.520836e+00 1.811394e+09 1.944881e+09
5.593247e+00 1.778700e+09 1.907902e+09
5.666607e+00 1.745199e+09 1.871641e+09
5.740930e+00 1.712272e+09 1.836433e+09
5.816227e+00 1.681209e+09 1.801944e+09
5.892513e+00 1.650094e+09 1.767955e+09
5.969798e+00 1.619819e+09 1.733632e+09
6.048098e+00 1.589697e+09 1.700292e+09
6.127424e+00 1.559150e+09 1.667944e+09
6.207791e+00 1.530375e+09 1.636378e+09
6.289211e+00 1.501472e+09 1.605141e+09
6.371700e+00 1.471888e+09 1.574434e+09
6.455271e+00 1.444822e+09 1.544007e+09
6.539938e+00 1.417215e+09 1.514047e+09
6.625715e+00 1.390353e+09 1.485023e+09
6.712617e+00 1.363130e+09 1.456453e+09
6.800659e+00 1.336617e+09 1.428322e+09
6.889856e+00 1.310708e+09 1.400784e+09
6.980223e+00 1.286003e+09 1.373583e+09
7.071775e+00 1.261444e+09 1.347310e+09
7.164527e+00 1.237048e+09 1.321007e+09
7.258497e+00 1.212653e+09 1.295642e+09
7.353699e+00 1.188658e+09 1.270199e+09
7.450149e+00 1.165066e+09 1.245750e+09
7.547864e+00 1.142032e+09 1.221725e+09
7.646862e+00 1.119568e+09 1.197624e+09
7.747157e+00 1.097320e+09 1.174124e+09
7.848768e+00 1.075814e+09 1.151056e+09
7.951712e+00 1.054015e+09 1.128374e+09
8.056006e+00 1.033317e+09 1.106101e+09
8.161668e+00 1.012411e+09 1.084031e+09
8.268715e+00 9.917838e+08 1.062675e+09
8.377167e+00 9.715813e+08 1.041317e+09
8.487041e+00 9.518644e+08 1.020569e+09
8.598357e+00 9.328364e+08 9.999572e+08
8.711132e+00 9.140857e+08 9.797086e+08
8.825386e+00 8.951678e+08 9.601238e+08
8.941139e+00 8.767127e+08 9.407683e+08
9.058410e+00 8.585916e+08 9.218891e+08
9.177220e+00 8.406445e+08 9.033805e+08
9.297587e+00 8.229435e+08 8.854078e+08
9.419534e+00 8.058717e+08 8.672673e+08
9.543079e+00 7.891232e+08 8.496377e+08
9.668246e+00 7.725203e+08 8.324594e+08
9.795053e+00 7.563299e+08 8.150400e+08
9.923524e+00 7.401954e+08 7.980379e+08
1.005368e+01 7.248236e+08 7.816035e+08
1.018554e+01 7.096158e+08 7.653800e+08
1.031914e+01 6.944689e+08 7.492064e+08
1.045448e+01 6.796787e+08 7.333901e+08
1.059160e+01 6.651988e+08 7.178416e+08
1.073052e+01 6.509851e+08 7.026295e+08
1.087126e+01 6.369009e+08 6.877241e+08
1.101385e+01 6.230039e+08 6.731847e+08
1.115830e+01 6.096787e+08 6.590569e+08
1.130465e+01 5.962783e+08 6.450238e+08
1.145293e+01 5.832576e+08 6.310301e+08
1.160314e+01 5.705675e+08 6.174171e+08
1.175533e+01 5.579142e+08 6.042193e+08
1.190951e+01 5.454758e+08 5.912964e+08
1.206571e+01 5.330129e+08 5.785270e+08
1.222397e+01 5.210557e+08 5.658991e+08
1.238429e+01 5.094436e+08 5.536348e+08
1.254673e+01 4.979873e+08 5.416216e+08
1.271129e+01 4.867397e+08 5.296542e+08
1.287801e+01 4.758204e+08 5.178726e+08
1.304691e+01 4.647531e+08 5.064587e+08
1.321804e+01 4.540662e+08 4.952503e+08
1.339140e+01 4.437440e+08 4.841526e+08
1.356704e+01 4.333894e+08 4.733914e+08
1.374499e+01 4.232478e+08 4.628037e+08
1.392527e+01 4.133899e+08 4.522362e+08
1.410791e+01 4.036412e+08 4.419722e+08
1.429295e+01 3.941249e+08 4.318620e+08
1.448041e+01 3.849636e+08 4.219284e+08
1.467033e+01 3.758424e+08 4.121102e+08
1.486275e+01 3.671163e+08 4.026571e+08
1.505769e+01 3.583120e+08 3.933677e+08
1.525518e+01 3.496945e+08 3.841242e+08
1.545527e+01 3.413523e+08 3.751257e+08
1.565798e+01 3.331008e+08 3.663151e+08
1.586335e+01 3.251044e+08 3.575756e+08
1.607141e+01 3.173292e+08 3.490000e+08
1.628220e+01 3.095059e+08 3.405793e+08
1.649576e+01 3.019010e+08 3.323801e+08
1.671211e+01 2.944655e+08 3.243784e+08
1.693131e+01 2.871467e+08 3.164744e+08
1.715338e+01 2.800278e+08 3.087833e+08
1.737836e+01 2.730783e+08 3.012706e+08
1.760629e+01 2.663155e+08 2.939077e+08
1.783722e+01 2.596075e+08 2.866587e+08
1.807117e+01 2.529744e+08 2.795434e+08
1.830819e+01 2.465503e+08 2.725179e+08
1.854831e+01 2.402129e+08 2.655769e+08
1.879159e+01 2.340340e+08 2.588202e+08
1.903806e+01 2.279361e+08 2.522585e+08
1.928776e+01 2.220761e+08 2.457854e+08
1.954074e+01 2.162243e+08 2.394583e+08
1.979703e+01 2.104983e+08 2.332961e+08
2.005669e+01 2.049371e+08 2.273539e+08
2.031975e+01 1.994958e+08 2.214706e+08
2.058626e+01 1.941132e+08 2.156146e+08
2.085627e+01 1.889053e+08 2.099916e+08
2.112982e+01 1.838687e+08 2.043998e+08
2.140696e+01 1.789665e+08 1.989257e+08
2.168773e+01 1.740324e+08 1.935738e+08
2.197218e+01 1.692307e+08 1.883559e+08
2.226037e+01 1.646487e+08 1.831899e+08
2.255233e+01 1.601538e+08 1.781338e+08
2.284813e+01 1.556139e+08 1.732057e+08
2.314780e+01 1.512638e+08 1.684102e+08
2.345141e+01 1.469488e+08 1.637834e+08
2.375899e+01 1.428081e+08 1.592544e+08
2.407061e+01 1.387370e+08 1.547807e+08
2.438632e+01 1.348415e+08 1.504610e+08
2.470617e+01 1.308645e+08 1.461650e+08
2.503022e+01 1.270852e+08 1.420266e+08
2.535851e+01 1.234303e+08 1.379569e+08
2.569111e+01 1.197961e+08 1.339684e+08
2.602807e+01 1.162160e+08 1.301124e+08
2.636945e+01 1.127719e+08 1.262660e+08
2.671531e+01 1.093658e+08 1.225700e+08
2.706571e+01 1.060970e+08 1.189265e+08
2.742070e+01 1.029354e+08 1.153452e+08
2.778035e+01 9.975963e+07 1.119181e+08
2.814471e+01 9.672084e+07 1.085719e+08
2.851386e+01 9.374782e+07 1.052540e+08
2.888784e+01 9.084006e+07 1.020085e+08
2.926673e+01 8.802805e+07 9.888018e+07
2.965059e+01 8.528312e+07 9.584324e+07
3.003948e+01 8.261526e+07 9.285969e+07
3.043348e+01 8.002082e+07 8.994919e+07
3.083264e+01 7.748907e+07 8.711143e+07
3.123704e+01 7.497660e+07 8.434458e+07
3.164674e+01 7.257892e+07 8.163394e+07
3.206182e+01 7.024525e+07 7.900043e+07
3.248234e+01 6.793090e+07 7.644501e+07
3.290837e+01 6.569530e+07 7.395942e+07
3.334000e+01 6.348991e+07 7.154380e+07
3.377728e+01 6.135828e+07 6.920483e+07
3.422030e+01 5.928406e+07 6.692735e+07
3.466913e+01 5.723991e+07 6.471946e+07
3.512385e+01 5.527004e+07 6.252797e+07
3.558453e+01 5.336090e+07 6.041265e+07
3.605125e+01 5.150822e+07 5.835096e+07
3.652410e+01 4.970614e+07 5.635493e+07
3.700315e+01 4.795013e+07 5.439837e+07
3.748848e+01 4.627699e+07 5.251306e+07
3.798017e+01 4.462610e+07 5.067953e+07
3.847832e+01 4.303733e+07 4.889318e+07
3.898299e+01 4.146160e+07 4.713381e+07
3.949429e+01 3.992252e+07 4.545777e+07
4.001230e+01 3.842675e+07 4.381790e+07
4.053709e+01 3.701371e+07 4.224629e+07
4.106877e+01 3.563538e+07 4.073005e+07
4.160743e+01 3.425616e+07 3.926185e+07
4.215315e+01 3.295869e+07 3.781322e+07
4.270602e+01 3.172409e+07 3.639984e+07
4.326615e+01 3.050305e+07 3.502827e+07
4.383363e+01 2.930666e+07 3.371646e+07
4.440855e+01 2.814942e+07 3.244926e+07
4.499100e+01 2.703247e+07 3.121597e+07
4.558110e+01 2.596699e+07 3.004464e+07
4.617894e+01 2.496233e+07 2.892088e+07
4.678462e+01 2.395467e+07 2.782103e+07
4.739824e+01 2.298726e+07 2.671695e+07
4.801991e+01 2.205485e+07 2.568876e+07
4.864974e+01 2.113784e+07 2.471226e+07
4.928782e+01 2.025831e+07 2.377572e+07
4.993428e+01 1.939589e+07 2.287208e+07
5.058921e+01 1.857685e+07 2.198882e+07
5.125274e+01 1.779678e+07 2.112273e+07
5.192496e+01 1.705423e+07 2.028478e+07
5.260600e+01 1.631235e+07 1.948280e+07
5.329598e+01 1.562348e+07 1.873046e+07
5.399501e+01 1.494928e+07 1.799532e+07
5.470320e+01 1.430719e+07 1.729031e+07
5.542068e+01 1.367402e+07 1.663513e+07
5.614757e+01 1.305934e+07 1.597712e+07
5.688400e+01 1.246462e+07 1.534921e+07
5.763009e+01 1.189154e+07 1.475727e+07
5.838596e+01 1.136041e+07 1.419019e+07
5.915174e+01 1.086638e+07 1.364551e+07
5.992757e+01 1.037596e+07 1.312039e+07
6.071358e+01 9.902014e+06 1.261719e+07
6.150989e+01 9.461005e+06 1.213785e+07
6.231665e+01 9.024881e+06 1.166667e+07
6.313399e+01 8.607197e+06 1.121446e+07
6.396205e+01 8.211080e+06 1.078389e+07
6.480097e+01 7.833388e+06 1.036345e+07
6.565089e+01 7.467917e+06 9.956524e+06
6.651196e+01 7.116097e+06 9.580299e+06
6.738433e+01 6.782570e+06 9.213078e+06
6.826813e+01 6.456716e+06 8.863574e+06
6.916353e+01 6.156569e+06 8.527373e+06
7.007068e+01 5.863590e+06 8.200669e+06
7.098972e+01 5.583656e+06 7.883225e+06
7.192081e+01 5.308777e+06 7.579430e+06
7.286412e+01 5.054063e+06 7.290356e+06
7.381980e+01 4.811048e+06 7.009639e+06
7.478801e+01 4.576994e+06 6.742243e+06
7.576892e+01 4.353116e+06 6.479828e+06
7.676270e+01 4.149535e+06 6.234845e+06
7.776952e+01 3.949204e+06 5.993689e+06
7.878953e+01 3.761742e+06 5.760793e+06
7.982293e+01 3.574132e+06 5.539138e+06
8.086988e+01 3.403080e+06 5.326190e+06
8.193056e+01 3.239385e+06 5.125277e+06
8.300516e+01 3.074356e+06 4.923488e+06
8.409384e+01 2.922033e+06 4.735640e+06
8.519681e+01 2.770017e+06 4.554980e+06
8.631425e+01 2.634473e+06 4.379905e+06
8.744634e+01 2.505143e+06 4.208659e+06
8.859327e+01 2.386681e+06 4.048867e+06
8.975526e+01 2.269812e+06 3.894417e+06
9.093248e+01 2.156917e+06 3.747898e+06
9.212514e+01 2.048185e+06 3.605660e+06
9.333344e+01 1.948849e+06 3.465371e+06
9.455760e+01 1.853681e+06 3.332054e+06
9.579781e+01 1.763191e+06 3.205802e+06
9.705428e+01 1.674104e+06 3.083339e+06
9.832724e+01 1.589642e+06 2.963152e+06
9.961689e+01 1.510339e+06 2.849753e+06
1.009235e+02 1.436915e+06 2.739781e+06
1.022472e+02 1.369644e+06 2.633705e+06
1.035882e+02 1.301758e+06 2.531811e+06
1.049469e+02 1.238716e+06 2.434255e+06
1.063233e+02 1.179888e+06 2.340089e+06
1.077179e+02 1.123315e+06 2.249190e+06
1.091307e+02 1.066154e+06 2.162332e+06
1.105620e+02 1.013017e+06 2.078839e+06
1.120122e+02 9.642669e+05 1.998582e+06
1.134813e+02 9.174575e+05 1.921303e+06
1.149697e+02 8.720063e+05 1.847023e+06
1.164777e+02 8.297504e+05 1.777047e+06
1.180054e+02 7.895240e+05 1.710567e+06
1.195531e+02 7.506622e+05 1.645601e+06
1.211212e+02 7.138816e+05 1.583999e+06
1.227098e+02 6.790220e+05 1.524753e+06
1.243192e+02 6.458340e+05 1.467771e+06
1.259498e+02 6.140389e+05 1.412848e+06
1.276017e+02 5.837974e+05 1.359444e+06
1.292753e+02 5.552827e+05 1.307698e+06
1.309709e+02 5.281597e+05 1.257872e+06
1.326887e+02 5.023563e+05 1.209838e+06
1.344290e+02 4.765792e+05 1.163625e+06
1.361922e+02 4.520546e+05 1.119548e+06
1.379785e+02 4.289910e+05 1.077354e+06
1.397882e+02 4.083232e+05 1.036765e+06
1.416216e+02 3.880121e+05 9.977486e+05
1.434791e+02 3.690988e+05 9.603015e+05
1.453610e+02 3.509977e+05 9.242719e+05
1.472675e+02 3.337864e+05 8.899765e+05
1.491991e+02 3.175414e+05 8.566578e+05
1.511560e+02 3.020856e+05 8.245025e+05
1.531385e+02 2.872413e+05 7.932742e+05
1.551471e+02 2.728367e+05 7.631123e+05
1.571820e+02 2.589897e+05 7.349514e+05
1.592436e+02 2.460662e+05 7.074746e+05
1.613322e+02 2.336210e+05 6.809997e+05
1.634482e+02 2.220576e+05 6.553910e+05
1.655920e+02 2.114964e+05 6.305125e+05
1.677639e+02 2.014046e+05 6.067193e+05
1.699642e+02 1.914292e+05 5.845321e+05
1.721935e+02 1.817833e+05 5.629267e+05
1.744519e+02 1.727337e+05 5.419162e+05
1.767400e+02 1.640565e+05 5.216981e+05
1.790581e+02 1.558146e+05 5.022425e+05
1.814067e+02 1.479953e+05 4.835204e+05
1.837860e+02 1.405838e+05 4.655572e+05
1.861965e+02 1.335594e+05 4.482541e+05
1.886386e+02 1.268854e+05 4.315458e+05
1.911128e+02 1.205443e+05 4.156631e+05
1.936194e+02 1.145196e+05 4.002079e+05
1.961589e+02 1.088813e+05 3.854542e+05
1.987317e+02 1.035746e+05 3.712278e+05
2.013383e+02 9.837569e+04 3.574106e+05
2.039790e+02 9.349101e+04 3.441142e+05
2.066544e+02 8.886991e+04 3.313189e+05
2.093648e+02 8.447677e+04 3.190697e+05
2.121108e+02 8.029469e+04 3.074499e+05
2.148929e+02 7.623091e+04 2.962641e+05
2.177114e+02 7.237292e+04 2.852103e+05
2.205669e+02 6.872567e+04 2.745094e+05
2.234598e+02 6.526184e+04 2.641705e+05
2.263907e+02 6.203541e+04 2.543892e+05
2.293600e+02 5.899109e+04 2.451609e+05
2.323683e+02 5.610070e+04 2.361049e+05
2.354160e+02 5.336208e+04 2.272496e+05
2.385037e+02 5.075680e+04 2.188509e+05
2.416319e+02 4.827695e+04 2.108614e+05
2.448011e+02 4.586634e+04 2.031519e+05
2.480119e+02 4.357582e+04 1.960877e+05
2.512648e+02 4.134960e+04 1.892864e+05
2.545603e+02 3.917587e+04 1.826642e+05
2.578991e+02 3.707962e+04 1.758987e+05
2.612817e+02 3.510099e+04 1.693599e+05
2.647087e+02 3.335639e+04 1.633809e+05
2.681806e+02 3.171918e+04 1.576127e+05
2.716980e+02 3.016210e+04 1.517710e+05
2.752616e+02 2.861981e+04 1.461427e+05
2.788719e+02 2.715554e+04 1.407152e+05
2.825295e+02 2.578947e+04 1.354864e+05
2.862352e+02 2.449718e+04 1.304535e+05
2.899894e+02 2.327252e+04 1.256093e+05
2.937929e+02 2.207233e+04 1.209466e+05
2.976462e+02 2.091984e+04 1.164585e+05
3.015501e+02 1.985699e+04 1.121385e+05
3.055052e+02 1.884914e+04 1.079802e+05
3.095122e+02 1.781272e+04 1.039777e+05
3.135717e+02 1.687886e+04 1.001405e+05
3.176845e+02 1.601890e+04 9.650173e+04
3.218512e+02 1.521937e+04 9.299801e+04
3.260726e+02 1.446121e+04 8.960867e+04
3.303494e+02 1.374072e+04 8.632132e+04
3.346822e+02 1.305601e+04 8.315657e+04
3.390718e+02 1.240533e+04 8.010981e+04
3.435191e+02 1.178698e+04 7.724241e+04
3.480246e+02 1.119936e+04 7.452590e+04
3.525893e+02 1.064094e+04 7.185924e+04
3.572138e+02 1.011028e+04 6.933122e+04
3.618990e+02 9.606004e+03 6.686087e+04
3.666457e+02 9.122455e+03 6.445374e+04
3.714546e+02 8.626454e+03 6.213538e+04
3.763265e+02 8.148191e+03 5.990249e+04
3.812624e+02 7.712632e+03 5.773041e+04
3.862630e+02 7.319241e+03 5.565979e+04
3.913292e+02 6.949246e+03 5.364694e+04
3.964618e+02 6.587426e+03 5.174261e+04
4.016618e+02 6.221373e+03 4.985652e+04
4.069299e+02 5.891115e+03 4.803762e+04
4.122672e+02 5.584083e+03 4.627710e+04
4.176744e+02 5.302680e+03 4.462624e+04
4.231526e+02 5.016291e+03 4.307358e+04
4.287027e+02 4.761591e+03 4.152030e+04
4.343255e+02 4.520567e+03 4.015759e+04
4.400221e+02 4.287717e+03 3.872158e+04
4.457933e+02 4.070792e+03 3.739655e+04
4.516403e+02 3.851246e+03 3.608798e+04
4.575640e+02 3.651654e+03 3.477972e+04
4.635654e+02 3.465615e+03 3.356536e+04
4.696455e+02 3.289022e+03 3.244622e+04
4.758053e+02 3.121396e+03 3.130255e+04
4.820459e+02 2.962283e+03 3.017601e+04
4.883684e+02 2.811252e+03 2.907303e+04
4.947738e+02 2.667894e+03 2.800993e+04
5.012632e+02 2.517712e+03 2.708780e+04
5.078377e+02 2.386386e+03 2.612468e+04
5.144985e+02 2.264351e+03 2.519508e+04
5.212466e+02 2.148532e+03 2.433213e+04
5.280832e+02 2.038614e+03 2.354664e+04
5.350095e+02 1.934296e+03 2.277660e+04
5.420266e+02 1.828091e+03 2.199593e+04
5.491358e+02 1.734785e+03 2.126352e+04
5.563382e+02 1.646221e+03 2.052185e+04
5.636351e+02 1.558476e+03 1.981264e+04
5.710277e+02 1.478797e+03 1.913326e+04
5.785172e+02 1.403170e+03 1.844940e+04
5.861050e+02 1.331390e+03 1.781195e+04
5.937923e+02 1.263262e+03 1.717602e+04
6.015804e+02 1.198600e+03 1.655930e+04
6.094707e+02 1.137230e+03 1.596521e+04
6.174645e+02 1.078984e+03 1.543453e+04
6.255631e+02 1.023704e+03 1.492255e+04
6.337679e+02 9.712399e+02 1.441457e+04
6.420804e+02 9.216009e+02 1.394296e+04
6.505018e+02 8.741945e+02 1.351014e+04
6.590337e+02 8.293491e+02 1.305880e+04
6.676776e+02 7.867901e+02 1.262284e+04
6.764348e+02 7.464015e+02 1.220604e+04
6.853068e+02 7.080732e+02 1.183343e+04
6.942953e+02 6.717006e+02 1.143324e+04
7.034016e+02 6.360428e+02 1.105384e+04
7.126273e+02 6.033885e+02 1.067533e+04
7.219741e+02 5.723496e+02 1.036385e+04
7.314434e+02 5.394050e+02 1.002089e+04
7.410370e+02 5.098436e+02 9.662850e+03
7.507563e+02 4.836234e+02 9.317871e+03
7.606032e+02 4.587425e+02 9.001009e+03
7.705792e+02 4.351326e+02 8.691522e+03
7.806861e+02 4.127293e+02 8.385337e+03
7.909255e+02 3.896690e+02 8.088118e+03
8.012992e+02 3.688757e+02 7.801667e+03
8.118089e+02 3.491771e+02 7.544254e+03
8.224566e+02 3.313023e+02 7.282323e+03
8.332438e+02 3.141846e+02 7.029074e+03
8.441726e+02 2.962421e+02 6.808329e+03
8.552447e+02 2.811338e+02 6.584075e+03
8.664620e+02 2.667918e+02 6.390386e+03
8.778264e+02 2.531775e+02 6.203443e+03
8.893399e+02 2.402542e+02 5.995724e+03
9.010044e+02 2.279868e+02 5.793527e+03
9.128219e+02 2.163423e+02 5.609878e+03
9.247944e+02 2.037905e+02 5.420318e+03
9.369239e+02 1.918058e+02 5.236259e+03
9.492125e+02 1.817605e+02 5.059786e+03
9.616623e+02 1.718436e+02 4.885441e+03
9.742754e+02 1.617235e+02 4.725394e+03
9.870539e+02 1.526225e+02 4.566679e+03
1.000000e+03 1.444684e+02 4.417878e+03
