Energy(MeV) Phi_16 Phi_84
1.000000e+00 2.278886e+10 2.811891e+10
1.013939e+00 2.242903e+10 2.771733e+10
1.028073e+00 2.207920e+10 2.729651e+10
1.042404e+00 2.173638e+10 2.688841e+10
1.056935e+00 2.138761e+10 2.649734e+10
1.071668e+00 2.104880e+10 2.609187e+10
1.086606e+00 2.072462e+10 2.569086e+10
1.101753e+00 2.040362e+10 2.532178e+10
1.117111e+00 2.008435e+10 2.496013e+10
1.132683e+00 1.977126e+10 2.460229e+10
1.148472e+00 1.945434e+10 2.424559e+10
1.164481e+00 1.915139e+10 2.389248e+10
1.180713e+00 1.885064e+10 2.352726e+10
1.197171e+00 1.854462e+10 2.317062e+10
1.213859e+00 1.825035e+10 2.279563e+10
1.230780e+00 1.797083e+10 2.242692e+10
1.247936e+00 1.768153e+10 2.209061e+10
1.265332e+00 1.741673e+10 2.175657e+10
1.282970e+00 1.713605e+10 2.143323e+10
1.300854e+00 1.685982e+10 2.109974e+10
1.318987e+00 1.659295e+10 2.076332e+10
1.337373e+00 1.633531e+10 2.044175e+10
1.356015e+00 1.608275e+10 2.013286e+10
1.374917e+00 1.582774e+10 1.981468e+10
1.394083e+00 1.557372e+10 1.950696e+10
1.413516e+00 1.533125e+10 1.922504e+10
1.433219e+00 1.509068e+10 1.894527e+10
1.453198e+00 1.486051e+10 1.865611e+10
1.473454e+00 1.462505e+10 1.836947e+10
1.493993e+00 1.439144e+10 1.809780e+10
1.514819e+00 1.416697e+10 1.781674e+10
1.535935e+00 1.393968e+10 1.755156e+10
1.557345e+00 1.371655e+10 1.728526e+10
1.579053e+00 1.349922e+10 1.701907e+10
1.601064e+00 1.328984e+10 1.675672e+10
1.623382e+00 1.308547e+10 1.649916e+10
1.646012e+00 1.288408e+10 1.624691e+10
1.668956e+00 1.267709e+10 1.599517e+10
1.692220e+00 1.246579e+10 1.574803e+10
1.715809e+00 1.225682e+10 1.550535e+10
1.739726e+00 1.205702e+10 1.526423e+10
1.763977e+00 1.186222e+10 1.501700e+10
1.788566e+00 1.167216e+10 1.477939e+10
1.813498e+00 1.147952e+10 1.455294e+10
1.838777e+00 1.129488e+10 1.432427e+10
1.864409e+00 1.111713e+10 1.410002e+10
1.890397e+00 1.094195e+10 1.387996e+10
1.916748e+00 1.076395e+10 1.365769e+10
1.943467e+00 1.058900e+10 1.345030e+10
1.970558e+00 1.041756e+10 1.324472e+10
1.998026e+00 1.024743e+10 1.303950e+10
2.025878e+00 1.008155e+10 1.282370e+10
2.054117e+00 9.913199e+09 1.261653e+10
2.082751e+00 9.745637e+09 1.242358e+10
2.111783e+00 9.587574e+09 1.223521e+10
2.141220e+00 9.431744e+09 1.204421e+10
2.171068e+00 9.278275e+09 1.185658e+10
2.201331e+00 9.128199e+09 1.166585e+10
2.232016e+00 8.977754e+09 1.147885e+10
2.263130e+00 8.821117e+09 1.129652e+10
2.294676e+00 8.678713e+09 1.112537e+10
2.326663e+00 8.542618e+09 1.095735e+10
2.359095e+00 8.401507e+09 1.078679e+10
2.391980e+00 8.262114e+09 1.060830e+10
2.425323e+00 8.127380e+09 1.043100e+10
2.459130e+00 7.991370e+09 1.026108e+10
2.493409e+00 7.860482e+09 1.009771e+10
2.528166e+00 7.735685e+09 9.932033e+09
2.563407e+00 7.605567e+09 9.771856e+09
2.599140e+00 7.476689e+09 9.616291e+09
2.635371e+00 7.349850e+09 9.462469e+09
2.672106e+00 7.225019e+09 9.311581e+09
2.709354e+00 7.101562e+09 9.166251e+09
2.747121e+00 6.976996e+09 9.013726e+09
2.785414e+00 6.856212e+09 8.866193e+09
2.824241e+00 6.739281e+09 8.719791e+09
2.863610e+00 6.627255e+09 8.579089e+09
2.903527e+00 6.516488e+09 8.436315e+09
2.944000e+00 6.404911e+09 8.300415e+09
2.985038e+00 6.295718e+09 8.166071e+09
3.026648e+00 6.185549e+09 8.032754e+09
3.068838e+00 6.081576e+09 7.900301e+09
3.111616e+00 5.977388e+09 7.772357e+09
3.154990e+00 5.874143e+09 7.645106e+09
3.198969e+00 5.772762e+09 7.519384e+09
3.243561e+00 5.673478e+09 7.393424e+09
3.288774e+00 5.578011e+09 7.270113e+09
3.334618e+00 5.482020e+09 7.149443e+09
3.381101e+00 5.389518e+09 7.030352e+09
3.428231e+00 5.297544e+09 6.912956e+09
3.476019e+00 5.207513e+09 6.797246e+09
3.524473e+00 5.115493e+09 6.683169e+09
3.573602e+00 5.024884e+09 6.570217e+09
3.623416e+00 4.935699e+09 6.458893e+09
3.673925e+00 4.851316e+09 6.349176e+09
3.725137e+00 4.765475e+09 6.241045e+09
3.777064e+00 4.679652e+09 6.136156e+09
3.829714e+00 4.595264e+09 6.033986e+09
3.883098e+00 4.516942e+09 5.933262e+09
3.937226e+00 4.440119e+09 5.833963e+09
3.992109e+00 4.360230e+09 5.736072e+09
4.047757e+00 4.282152e+09 5.636656e+09
4.104181e+00 4.203747e+09 5.538781e+09
4.161391e+00 4.126876e+09 5.440723e+09
4.219398e+00 4.052175e+09 5.352718e+09
4.278214e+00 3.979340e+09 5.256673e+09
4.337850e+00 3.907675e+09 5.166095e+09
4.398317e+00 3.837164e+09 5.079939e+09
4.459628e+00 3.767788e+09 4.989571e+09
4.521792e+00 3.699530e+09 4.904307e+09
4.584824e+00 3.630816e+09 4.816352e+09
4.648734e+00 3.562895e+09 4.729971e+09
4.713535e+00 3.496111e+09 4.645251e+09
4.779239e+00 3.431763e+09 4.560486e+09
4.845859e+00 3.368803e+09 4.478087e+09
4.913407e+00 3.307206e+09 4.396419e+09
4.981898e+00 3.246755e+09 4.316218e+09
5.051342e+00 3.187930e+09 4.239700e+09
5.121755e+00 3.132098e+09 4.162492e+09
5.193150e+00 3.076324e+09 4.089112e+09
5.265540e+00 3.019541e+09 4.017892e+09
5.338938e+00 2.964120e+09 3.945321e+09
5.413360e+00 2.908153e+09 3.870614e+09
5.488820e+00 2.853448e+09 3.798024e+09
5.565331e+00 2.799922e+09 3.728081e+09
5.642908e+00 2.745803e+09 3.660869e+09
5.721568e+00 2.694383e+09 3.595428e+09
5.801323e+00 2.643826e+09 3.531153e+09
5.882190e+00 2.593130e+09 3.466894e+09
5.964185e+00 2.542872e+09 3.401340e+09
6.047322e+00 2.493985e+09 3.335798e+09
6.131619e+00 2.445831e+09 3.273716e+09
6.217090e+00 2.398344e+09 3.213736e+09
6.303753e+00 2.351478e+09 3.153028e+09
6.391624e+00 2.305911e+09 3.092151e+09
6.480720e+00 2.260220e+09 3.031834e+09
6.571058e+00 2.215850e+09 2.973230e+09
6.662655e+00 2.173255e+09 2.915696e+09
6.755528e+00 2.130983e+09 2.859457e+09
6.849697e+00 2.088154e+09 2.805059e+09
6.945178e+00 2.046293e+09 2.751349e+09
7.041990e+00 2.005372e+09 2.698614e+09
7.140151e+00 1.965047e+09 2.645958e+09
7.239681e+00 1.924816e+09 2.590876e+09
7.340598e+00 1.886030e+09 2.536323e+09
7.442922e+00 1.848354e+09 2.485015e+09
7.546673e+00 1.811550e+09 2.437076e+09
7.651869e+00 1.775757e+09 2.388827e+09
7.758532e+00 1.739742e+09 2.340398e+09
7.866682e+00 1.705082e+09 2.291677e+09
7.976339e+00 1.670279e+09 2.246568e+09
8.087525e+00 1.636238e+09 2.199634e+09
8.200261e+00 1.603045e+09 2.157526e+09
8.314568e+00 1.570411e+09 2.114027e+09
8.430468e+00 1.538323e+09 2.069560e+09
8.547985e+00 1.506890e+09 2.026355e+09
8.667139e+00 1.476182e+09 1.983486e+09
8.787954e+00 1.445981e+09 1.941464e+09
8.910453e+00 1.416282e+09 1.900202e+09
9.034660e+00 1.385931e+09 1.859239e+09
9.160598e+00 1.356463e+09 1.819096e+09
9.288292e+00 1.327954e+09 1.780542e+09
9.417766e+00 1.299981e+09 1.742140e+09
9.549045e+00 1.272498e+09 1.704559e+09
9.682153e+00 1.245700e+09 1.667734e+09
9.817117e+00 1.219396e+09 1.631580e+09
9.953962e+00 1.193111e+09 1.596278e+09
1.009272e+01 1.167526e+09 1.561316e+09
1.023340e+01 1.141804e+09 1.526238e+09
1.037605e+01 1.117852e+09 1.492293e+09
1.052069e+01 1.094169e+09 1.458687e+09
1.066734e+01 1.069133e+09 1.425795e+09
1.081604e+01 1.045314e+09 1.393829e+09
1.096681e+01 1.022118e+09 1.362862e+09
1.111968e+01 9.983809e+08 1.332799e+09
1.127468e+01 9.747205e+08 1.302082e+09
1.143184e+01 9.516679e+08 1.272381e+09
1.159120e+01 9.292555e+08 1.242933e+09
1.175277e+01 9.083491e+08 1.212862e+09
1.191660e+01 8.881558e+08 1.184522e+09
1.208271e+01 8.685507e+08 1.156580e+09
1.225114e+01 8.471847e+08 1.129059e+09
1.242191e+01 8.263931e+08 1.101844e+09
1.259506e+01 8.062288e+08 1.075855e+09
1.277063e+01 7.874493e+08 1.048914e+09
1.294865e+01 7.683894e+08 1.024760e+09
1.312915e+01 7.474119e+08 1.000677e+09
1.331216e+01 7.294940e+08 9.770308e+08
1.349772e+01 7.124342e+08 9.535330e+08
1.368587e+01 6.952928e+08 9.310827e+08
1.387665e+01 6.779880e+08 9.088429e+08
1.407008e+01 6.615400e+08 8.857991e+08
1.426621e+01 6.454161e+08 8.644590e+08
1.446507e+01 6.296369e+08 8.433974e+08
1.466671e+01 6.138599e+08 8.220088e+08
1.487115e+01 5.982955e+08 8.010369e+08
1.507845e+01 5.836463e+08 7.802436e+08
1.528864e+01 5.691542e+08 7.608632e+08
1.550175e+01 5.549823e+08 7.409081e+08
1.571784e+01 5.408837e+08 7.207735e+08
1.593694e+01 5.271041e+08 7.016819e+08
1.615909e+01 5.133001e+08 6.829819e+08
1.638434e+01 5.000750e+08 6.650223e+08
1.661273e+01 4.871492e+08 6.474249e+08
1.684430e+01 4.740149e+08 6.304504e+08
1.707910e+01 4.612568e+08 6.134066e+08
1.731717e+01 4.481731e+08 5.961992e+08
1.755856e+01 4.357967e+08 5.795068e+08
1.780332e+01 4.236669e+08 5.640696e+08
1.805149e+01 4.116634e+08 5.479294e+08
1.830312e+01 4.005246e+08 5.321685e+08
1.855825e+01 3.895009e+08 5.175989e+08
1.881694e+01 3.790778e+08 5.026386e+08
1.907924e+01 3.682665e+08 4.885919e+08
1.934520e+01 3.569785e+08 4.747982e+08
1.961486e+01 3.461984e+08 4.613106e+08
1.988828e+01 3.364964e+08 4.479281e+08
2.016551e+01 3.263332e+08 4.353377e+08
2.044661e+01 3.163419e+08 4.224498e+08
2.073162e+01 3.069776e+08 4.101821e+08
2.102061e+01 2.977383e+08 3.981685e+08
2.131362e+01 2.891840e+08 3.863311e+08
2.161073e+01 2.802691e+08 3.751028e+08
2.191197e+01 2.722428e+08 3.641505e+08
2.221741e+01 2.641112e+08 3.530827e+08
2.252711e+01 2.559550e+08 3.421840e+08
2.284112e+01 2.479712e+08 3.320962e+08
2.315951e+01 2.401282e+08 3.217490e+08
2.348235e+01 2.320337e+08 3.119831e+08
2.380968e+01 2.250619e+08 3.022732e+08
2.414157e+01 2.183229e+08 2.925666e+08
2.447809e+01 2.111320e+08 2.831646e+08
2.481930e+01 2.040096e+08 2.741466e+08
2.516527e+01 1.973657e+08 2.655866e+08
2.551606e+01 1.908546e+08 2.569346e+08
2.587174e+01 1.841808e+08 2.487366e+08
2.623238e+01 1.780700e+08 2.404711e+08
2.659804e+01 1.720591e+08 2.326036e+08
2.696881e+01 1.662538e+08 2.248088e+08
2.734474e+01 1.606501e+08 2.172781e+08
2.772591e+01 1.552239e+08 2.100847e+08
2.811239e+01 1.494908e+08 2.030661e+08
2.850426e+01 1.443318e+08 1.962451e+08
2.890160e+01 1.393047e+08 1.896897e+08
2.930447e+01 1.340905e+08 1.831884e+08
2.971296e+01 1.288896e+08 1.766894e+08
3.012714e+01 1.243089e+08 1.702741e+08
3.054710e+01 1.198790e+08 1.642729e+08
3.097291e+01 1.152260e+08 1.586109e+08
3.140465e+01 1.110246e+08 1.529491e+08
3.184242e+01 1.070107e+08 1.472710e+08
3.228628e+01 1.029756e+08 1.418249e+08
3.273634e+01 9.899273e+07 1.364865e+08
3.319266e+01 9.521802e+07 1.313211e+08
3.365535e+01 9.152060e+07 1.262314e+08
3.412449e+01 8.788833e+07 1.215014e+08
3.460016e+01 8.445677e+07 1.168668e+08
3.508247e+01 8.110820e+07 1.125717e+08
3.557150e+01 7.777873e+07 1.083114e+08
3.606735e+01 7.460927e+07 1.041239e+08
3.657011e+01 7.138430e+07 1.000017e+08
3.707988e+01 6.830088e+07 9.611416e+07
3.759675e+01 6.528791e+07 9.241339e+07
3.812083e+01 6.239531e+07 8.889887e+07
3.865221e+01 5.994895e+07 8.531126e+07
3.919100e+01 5.740239e+07 8.192147e+07
3.973730e+01 5.483282e+07 7.855435e+07
4.029122e+01 5.228269e+07 7.525607e+07
4.085286e+01 5.003388e+07 7.213484e+07
4.142232e+01 4.772787e+07 6.933499e+07
4.199973e+01 4.563704e+07 6.660502e+07
4.258518e+01 4.364433e+07 6.387161e+07
4.317880e+01 4.163318e+07 6.114353e+07
4.378069e+01 3.970971e+07 5.862604e+07
4.439097e+01 3.783549e+07 5.610287e+07
4.500975e+01 3.593020e+07 5.368383e+07
4.563716e+01 3.445517e+07 5.136189e+07
4.627332e+01 3.294275e+07 4.917554e+07
4.691835e+01 3.142380e+07 4.701181e+07
4.757236e+01 2.992693e+07 4.509369e+07
4.823549e+01 2.843550e+07 4.314914e+07
4.890787e+01 2.711746e+07 4.121803e+07
4.958962e+01 2.584939e+07 3.940193e+07
5.028087e+01 2.458120e+07 3.762988e+07
5.098176e+01 2.337849e+07 3.600296e+07
5.169242e+01 2.224121e+07 3.437863e+07
5.241298e+01 2.122723e+07 3.283682e+07
5.314359e+01 2.026137e+07 3.133212e+07
5.388438e+01 1.925398e+07 3.000866e+07
5.463550e+01 1.836102e+07 2.857584e+07
5.539709e+01 1.753049e+07 2.727307e+07
5.616930e+01 1.672154e+07 2.599698e+07
5.695227e+01 1.589247e+07 2.479333e+07
5.774615e+01 1.509848e+07 2.370660e+07
5.855110e+01 1.434838e+07 2.262910e+07
5.936727e+01 1.363455e+07 2.160870e+07
6.019482e+01 1.296584e+07 2.059358e+07
6.103390e+01 1.229171e+07 1.952957e+07
6.188468e+01 1.163081e+07 1.860080e+07
6.274732e+01 1.104237e+07 1.769116e+07
6.362198e+01 1.046061e+07 1.687030e+07
6.450884e+01 9.932583e+06 1.605904e+07
6.540806e+01 9.429822e+06 1.527771e+07
6.631981e+01 8.952932e+06 1.454064e+07
6.724427e+01 8.467926e+06 1.378100e+07
6.818162e+01 8.046367e+06 1.308355e+07
6.913204e+01 7.638554e+06 1.246989e+07
7.009570e+01 7.244237e+06 1.189261e+07
7.107280e+01 6.863880e+06 1.131008e+07
7.206351e+01 6.504133e+06 1.077518e+07
7.306804e+01 6.180686e+06 1.029611e+07
7.408657e+01 5.846507e+06 9.803811e+06
7.511929e+01 5.534969e+06 9.345569e+06
7.616642e+01 5.245334e+06 8.884232e+06
7.722814e+01 4.973894e+06 8.518205e+06
7.830465e+01 4.713902e+06 8.084152e+06
7.939618e+01 4.463100e+06 7.717736e+06
8.050292e+01 4.210091e+06 7.315416e+06
8.162509e+01 3.977150e+06 6.958736e+06
8.276289e+01 3.766015e+06 6.613943e+06
8.391656e+01 3.577238e+06 6.329747e+06
8.508632e+01 3.377504e+06 6.017413e+06
8.627237e+01 3.199708e+06 5.732736e+06
8.747496e+01 3.027902e+06 5.484941e+06
8.869432e+01 2.857604e+06 5.238595e+06
8.993067e+01 2.706279e+06 5.002405e+06
9.118425e+01 2.547952e+06 4.775024e+06
9.245531e+01 2.410348e+06 4.555527e+06
9.374409e+01 2.271885e+06 4.339704e+06
9.505083e+01 2.143924e+06 4.152112e+06
9.637579e+01 2.031727e+06 3.975093e+06
9.771921e+01 1.922518e+06 3.795555e+06
9.908137e+01 1.814960e+06 3.623635e+06
1.004625e+02 1.714976e+06 3.458279e+06
1.018629e+02 1.622400e+06 3.295802e+06
1.032828e+02 1.534333e+06 3.154106e+06
1.047225e+02 1.456366e+06 3.024691e+06
1.061823e+02 1.376167e+06 2.893205e+06
1.076624e+02 1.300748e+06 2.768005e+06
1.091632e+02 1.229656e+06 2.650135e+06
1.106848e+02 1.163664e+06 2.536616e+06
1.122277e+02 1.098909e+06 2.416594e+06
1.137921e+02 1.035971e+06 2.305651e+06
1.153783e+02 9.770308e+05 2.208515e+06
1.169866e+02 9.272156e+05 2.112383e+06
1.186174e+02 8.754890e+05 2.020266e+06
1.202708e+02 8.265290e+05 1.930947e+06
1.219473e+02 7.800102e+05 1.845521e+06
1.236472e+02 7.364488e+05 1.768094e+06
1.253708e+02 6.962184e+05 1.693673e+06
1.271184e+02 6.563490e+05 1.622141e+06
1.288904e+02 6.189352e+05 1.546881e+06
1.306870e+02 5.849723e+05 1.474094e+06
1.325087e+02 5.525582e+05 1.409394e+06
1.343558e+02 5.213093e+05 1.344920e+06
1.362287e+02 4.913706e+05 1.283561e+06
1.381276e+02 4.639754e+05 1.227506e+06
1.400531e+02 4.400386e+05 1.174065e+06
1.420053e+02 4.179942e+05 1.122793e+06
1.439848e+02 3.948035e+05 1.073755e+06
1.459919e+02 3.717949e+05 1.026901e+06
1.480269e+02 3.495429e+05 9.818650e+05
1.500903e+02 3.299475e+05 9.364182e+05
1.521825e+02 3.136694e+05 8.941806e+05
1.543038e+02 2.975872e+05 8.543944e+05
1.564548e+02 2.811120e+05 8.168698e+05
1.586357e+02 2.645096e+05 7.820649e+05
1.608469e+02 2.497079e+05 7.480783e+05
1.630891e+02 2.362891e+05 7.142859e+05
1.653624e+02 2.228798e+05 6.817743e+05
1.676675e+02 2.099452e+05 6.526473e+05
1.700047e+02 1.987369e+05 6.260328e+05
1.723745e+02 1.875828e+05 6.000497e+05
1.747773e+02 1.774927e+05 5.737700e+05
1.772136e+02 1.680976e+05 5.487288e+05
1.796838e+02 1.587466e+05 5.247083e+05
1.821885e+02 1.503853e+05 5.017799e+05
1.847281e+02 1.419286e+05 4.797745e+05
1.873032e+02 1.336840e+05 4.585803e+05
1.899141e+02 1.263020e+05 4.383069e+05
1.925614e+02 1.190165e+05 4.193612e+05
1.952456e+02 1.124163e+05 4.014619e+05
1.979672e+02 1.064439e+05 3.843718e+05
2.007267e+02 1.006851e+05 3.680094e+05
2.035248e+02 9.489597e+04 3.524920e+05
2.063618e+02 8.929161e+04 3.376494e+05
2.092383e+02 8.418708e+04 3.232658e+05
2.121550e+02 7.956566e+04 3.092374e+05
2.151123e+02 7.516007e+04 2.960301e+05
2.181109e+02 7.074851e+04 2.832472e+05
2.211512e+02 6.694139e+04 2.709360e+05
2.242340e+02 6.328782e+04 2.588875e+05
2.273597e+02 5.957781e+04 2.472841e+05
2.305289e+02 5.583068e+04 2.362009e+05
2.337424e+02 5.277887e+04 2.265935e+05
2.370006e+02 5.014581e+04 2.170630e+05
2.403043e+02 4.733296e+04 2.076245e+05
2.436540e+02 4.483886e+04 1.985892e+05
2.470504e+02 4.230532e+04 1.899473e+05
2.504942e+02 3.990866e+04 1.816816e+05
2.539859e+02 3.752076e+04 1.737758e+05
2.575263e+02 3.531390e+04 1.661908e+05
2.611161e+02 3.325809e+04 1.589017e+05
2.647559e+02 3.131205e+04 1.519324e+05
2.684465e+02 2.946547e+04 1.453025e+05
2.721885e+02 2.775217e+04 1.390831e+05
2.759826e+02 2.616641e+04 1.331274e+05
2.798297e+02 2.476059e+04 1.273619e+05
2.837304e+02 2.343859e+04 1.218341e+05
2.876854e+02 2.209371e+04 1.165255e+05
2.916956e+02 2.082620e+04 1.113766e+05
2.957617e+02 1.963093e+04 1.064543e+05
2.998844e+02 1.849055e+04 1.017497e+05
3.040646e+02 1.744993e+04 9.725316e+04
3.083031e+02 1.643868e+04 9.300693e+04
3.126007e+02 1.548603e+04 8.901140e+04
3.169582e+02 1.458857e+04 8.518762e+04
3.213764e+02 1.376376e+04 8.152820e+04
3.258562e+02 1.300629e+04 7.804706e+04
3.303985e+02 1.228679e+04 7.473283e+04
3.350041e+02 1.160069e+04 7.151739e+04
3.396739e+02 1.096405e+04 6.841031e+04
3.444087e+02 1.034453e+04 6.543837e+04
3.492096e+02 9.777705e+03 6.260328e+04
3.540774e+02 9.248286e+03 5.989110e+04
3.590130e+02 8.741266e+03 5.729649e+04
3.640175e+02 8.264045e+03 5.481434e+04
3.690917e+02 7.812873e+03 5.243980e+04
3.742366e+02 7.379129e+03 5.016817e+04
3.794533e+02 6.949903e+03 4.806710e+04
3.847427e+02 6.554270e+03 4.600442e+04
3.901058e+02 6.169139e+03 4.399049e+04
3.955436e+02 5.806632e+03 4.205854e+04
4.010573e+02 5.474868e+03 4.021150e+04
4.066478e+02 5.176139e+03 3.846307e+04
4.123163e+02 4.895263e+03 3.679725e+04
4.180637e+02 4.630615e+03 3.519576e+04
4.238913e+02 4.375551e+03 3.366397e+04
4.298001e+02 4.125785e+03 3.220753e+04
4.357913e+02 3.890273e+03 3.081418e+04
4.418660e+02 3.668201e+03 2.947323e+04
4.480254e+02 3.458803e+03 2.817033e+04
4.542706e+02 3.261356e+03 2.694998e+04
4.606029e+02 3.075178e+03 2.584484e+04
4.670234e+02 2.902100e+03 2.475102e+04
4.735335e+02 2.740018e+03 2.368328e+04
4.801343e+02 2.587759e+03 2.266166e+04
4.868271e+02 2.437847e+03 2.168414e+04
4.936132e+02 2.301164e+03 2.073850e+04
5.004939e+02 2.172725e+03 1.982749e+04
5.074705e+02 2.051799e+03 1.895653e+04
5.145444e+02 1.934195e+03 1.814875e+04
5.217169e+02 1.820284e+03 1.739863e+04
5.289893e+02 1.721842e+03 1.666566e+04
5.363631e+02 1.629131e+03 1.595453e+04
5.438397e+02 1.539675e+03 1.526810e+04
5.514206e+02 1.455169e+03 1.461124e+04
5.591071e+02 1.372524e+03 1.398267e+04
5.669007e+02 1.294571e+03 1.338116e+04
5.748030e+02 1.221182e+03 1.280555e+04
5.828155e+02 1.152238e+03 1.225613e+04
5.909396e+02 1.087395e+03 1.173275e+04
5.991770e+02 1.025483e+03 1.124663e+04
6.075292e+02 9.650154e+02 1.078189e+04
6.159978e+02 9.091340e+02 1.032569e+04
6.245845e+02 8.586567e+02 9.880457e+03
6.332908e+02 8.090776e+02 9.454450e+03
6.421186e+02 7.629948e+02 9.046837e+03
6.510694e+02 7.208177e+02 8.656575e+03
6.601449e+02 6.790375e+02 8.283041e+03
6.693470e+02 6.397081e+02 7.924011e+03
6.786773e+02 6.045299e+02 7.581206e+03
6.881377e+02 5.714504e+02 7.256119e+03
6.977300e+02 5.401798e+02 6.944988e+03
7.074559e+02 5.106192e+02 6.647214e+03
7.173175e+02 4.817948e+02 6.362223e+03
7.273165e+02 4.539312e+02 6.090341e+03
7.374549e+02 4.273840e+02 5.834321e+03
7.477346e+02 4.024201e+02 5.589080e+03
7.581576e+02 3.787867e+02 5.354163e+03
7.687260e+02 3.575371e+02 5.129136e+03
7.794416e+02 3.374787e+02 4.945072e+03
7.903066e+02 3.185448e+02 4.744017e+03
8.013230e+02 3.006755e+02 4.540848e+03
8.124930e+02 2.838321e+02 4.346395e+03
8.238187e+02 2.679315e+02 4.160281e+03
8.353023e+02 2.531062e+02 3.982150e+03
8.469460e+02 2.387504e+02 3.811658e+03
8.587519e+02 2.253731e+02 3.648477e+03
8.707225e+02 2.127447e+02 3.492294e+03
8.828599e+02 2.006320e+02 3.344322e+03
8.951665e+02 1.892892e+02 3.202893e+03
9.076446e+02 1.785920e+02 3.068714e+03
9.202967e+02 1.683433e+02 2.940095e+03
9.331251e+02 1.586823e+02 2.816354e+03
9.461324e+02 1.495757e+02 2.697833e+03
9.593209e+02 1.409950e+02 2.584310e+03
9.726934e+02 1.329062e+02 2.475439e+03
9.862522e+02 1.252811e+02 2.368296e+03
1.000000e+03 1.179124e+02 2.267647e+03
