Energy(MeV) Phi_16 Phi_84
1.000000e+00 5.697215e+09 7.029727e+09
1.013939e+00 5.607257e+09 6.929332e+09
1.028073e+00 5.519799e+09 6.824128e+09
1.042404e+00 5.434095e+09 6.722102e+09
1.056935e+00 5.346903e+09 6.624335e+09
1.071668e+00 5.262200e+09 6.522967e+09
1.086606e+00 5.181156e+09 6.422716e+09
1.101753e+00 5.100906e+09 6.330446e+09
1.117111e+00 5.021086e+09 6.240032e+09
1.132683e+00 4.942814e+09 6.150573e+09
1.148472e+00 4.863584e+09 6.061397e+09
1.164481e+00 4.787848e+09 5.973120e+09
1.180713e+00 4.712659e+09 5.881815e+09
1.197171e+00 4.636154e+09 5.792656e+09
1.213859e+00 4.562587e+09 5.698908e+09
1.230780e+00 4.492706e+09 5.606730e+09
1.247936e+00 4.420382e+09 5.522651e+09
1.265332e+00 4.354183e+09 5.439143e+09
1.282970e+00 4.284014e+09 5.358307e+09
1.300854e+00 4.214955e+09 5.274935e+09
1.318987e+00 4.148238e+09 5.190829e+09
1.337373e+00 4.083828e+09 5.110436e+09
1.356015e+00 4.020688e+09 5.033216e+09
1.374917e+00 3.956936e+09 4.953670e+09
1.394083e+00 3.893429e+09 4.876741e+09
1.413516e+00 3.832812e+09 4.806261e+09
1.433219e+00 3.772670e+09 4.736317e+09
1.453198e+00 3.715128e+09 4.664028e+09
1.473454e+00 3.656263e+09 4.592368e+09
1.493993e+00 3.597859e+09 4.524449e+09
1.514819e+00 3.541742e+09 4.454184e+09
1.535935e+00 3.484921e+09 4.387890e+09
1.557345e+00 3.429137e+09 4.321315e+09
1.579053e+00 3.374806e+09 4.254767e+09
1.601064e+00 3.322459e+09 4.189180e+09
1.623382e+00 3.271368e+09 4.124791e+09
1.646012e+00 3.221020e+09 4.061727e+09
1.668956e+00 3.169273e+09 3.998792e+09
1.692220e+00 3.116448e+09 3.937007e+09
1.715809e+00 3.064205e+09 3.876338e+09
1.739726e+00 3.014256e+09 3.816058e+09
1.763977e+00 2.965555e+09 3.754250e+09
1.788566e+00 2.918041e+09 3.694848e+09
1.813498e+00 2.869879e+09 3.638234e+09
1.838777e+00 2.823721e+09 3.581066e+09
1.864409e+00 2.779283e+09 3.525005e+09
1.890397e+00 2.735487e+09 3.469989e+09
1.916748e+00 2.690986e+09 3.414422e+09
1.943467e+00 2.647249e+09 3.362574e+09
1.970558e+00 2.604391e+09 3.311180e+09
1.998026e+00 2.561858e+09 3.259875e+09
2.025878e+00 2.520388e+09 3.205926e+09
2.054117e+00 2.478300e+09 3.154133e+09
2.082751e+00 2.436409e+09 3.105896e+09
2.111783e+00 2.396894e+09 3.058802e+09
2.141220e+00 2.357936e+09 3.011053e+09
2.171068e+00 2.319569e+09 2.964144e+09
2.201331e+00 2.282050e+09 2.916462e+09
2.232016e+00 2.244439e+09 2.869713e+09
2.263130e+00 2.205279e+09 2.824130e+09
2.294676e+00 2.169678e+09 2.781343e+09
2.326663e+00 2.135654e+09 2.739338e+09
2.359095e+00 2.100377e+09 2.696697e+09
2.391980e+00 2.065529e+09 2.652075e+09
2.425323e+00 2.031845e+09 2.607751e+09
2.459130e+00 1.997842e+09 2.565269e+09
2.493409e+00 1.965120e+09 2.524427e+09
2.528166e+00 1.933921e+09 2.483008e+09
2.563407e+00 1.901392e+09 2.442964e+09
2.599140e+00 1.869172e+09 2.404073e+09
2.635371e+00 1.837463e+09 2.365617e+09
2.672106e+00 1.806255e+09 2.327895e+09
2.709354e+00 1.775391e+09 2.291563e+09
2.747121e+00 1.744249e+09 2.253432e+09
2.785414e+00 1.714053e+09 2.216548e+09
2.824241e+00 1.684820e+09 2.179948e+09
2.863610e+00 1.656814e+09 2.144772e+09
2.903527e+00 1.629122e+09 2.109079e+09
2.944000e+00 1.601228e+09 2.075104e+09
2.985038e+00 1.573929e+09 2.041518e+09
3.026648e+00 1.546387e+09 2.008189e+09
3.068838e+00 1.520394e+09 1.975075e+09
3.111616e+00 1.494347e+09 1.943089e+09
3.154990e+00 1.468536e+09 1.911276e+09
3.198969e+00 1.443190e+09 1.879846e+09
3.243561e+00 1.418369e+09 1.848356e+09
3.288774e+00 1.394503e+09 1.817528e+09
3.334618e+00 1.370505e+09 1.787361e+09
3.381101e+00 1.347379e+09 1.757588e+09
3.428231e+00 1.324386e+09 1.728239e+09
3.476019e+00 1.301878e+09 1.699311e+09
3.524473e+00 1.278873e+09 1.670792e+09
3.573602e+00 1.256221e+09 1.642554e+09
3.623416e+00 1.233925e+09 1.614723e+09
3.673925e+00 1.212829e+09 1.587294e+09
3.725137e+00 1.191369e+09 1.560261e+09
3.777064e+00 1.169913e+09 1.534039e+09
3.829714e+00 1.148816e+09 1.508497e+09
3.883098e+00 1.129235e+09 1.483315e+09
3.937226e+00 1.110030e+09 1.458491e+09
3.992109e+00 1.090058e+09 1.434018e+09
4.047757e+00 1.070538e+09 1.409164e+09
4.104181e+00 1.050937e+09 1.384695e+09
4.161391e+00 1.031719e+09 1.360181e+09
4.219398e+00 1.013044e+09 1.338180e+09
4.278214e+00 9.948349e+08 1.314168e+09
4.337850e+00 9.769188e+08 1.291524e+09
4.398317e+00 9.592910e+08 1.269985e+09
4.459628e+00 9.419470e+08 1.247393e+09
4.521792e+00 9.248824e+08 1.226077e+09
4.584824e+00 9.077040e+08 1.204088e+09
4.648734e+00 8.907238e+08 1.182493e+09
4.713535e+00 8.740276e+08 1.161313e+09
4.779239e+00 8.579407e+08 1.140122e+09
4.845859e+00 8.422007e+08 1.119522e+09
4.913407e+00 8.268016e+08 1.099105e+09
4.981898e+00 8.116886e+08 1.079054e+09
5.051342e+00 7.969826e+08 1.059925e+09
5.121755e+00 7.830245e+08 1.040623e+09
5.193150e+00 7.690811e+08 1.022278e+09
5.265540e+00 7.548851e+08 1.004473e+09
5.338938e+00 7.410301e+08 9.863303e+08
5.413360e+00 7.270384e+08 9.676536e+08
5.488820e+00 7.133619e+08 9.495060e+08
5.565331e+00 6.999806e+08 9.320202e+08
5.642908e+00 6.864507e+08 9.152172e+08
5.721568e+00 6.735958e+08 8.988569e+08
5.801323e+00 6.609566e+08 8.827882e+08
5.882190e+00 6.482825e+08 8.667234e+08
5.964185e+00 6.357179e+08 8.503349e+08
6.047322e+00 6.234962e+08 8.339494e+08
6.131619e+00 6.114579e+08 8.184289e+08
6.217090e+00 5.995861e+08 8.034341e+08
6.303753e+00 5.878694e+08 7.882570e+08
6.391624e+00 5.764777e+08 7.730377e+08
6.480720e+00 5.650550e+08 7.579584e+08
6.571058e+00 5.539624e+08 7.433075e+08
6.662655e+00 5.433139e+08 7.289239e+08
6.755528e+00 5.327457e+08 7.148642e+08
6.849697e+00 5.220385e+08 7.012648e+08
6.945178e+00 5.115733e+08 6.878373e+08
7.041990e+00 5.013429e+08 6.746534e+08
7.140151e+00 4.912617e+08 6.614895e+08
7.239681e+00 4.812041e+08 6.477191e+08
7.340598e+00 4.715075e+08 6.340808e+08
7.442922e+00 4.620885e+08 6.212538e+08
7.546673e+00 4.528874e+08 6.092691e+08
7.651869e+00 4.439393e+08 5.972068e+08
7.758532e+00 4.349356e+08 5.850995e+08
7.866682e+00 4.262704e+08 5.729192e+08
7.976339e+00 4.175697e+08 5.616420e+08
8.087525e+00 4.090594e+08 5.499085e+08
8.200261e+00 4.007612e+08 5.393814e+08
8.314568e+00 3.926027e+08 5.285067e+08
8.430468e+00 3.845808e+08 5.173901e+08
8.547985e+00 3.767226e+08 5.065889e+08
8.667139e+00 3.690454e+08 4.958716e+08
8.787954e+00 3.614953e+08 4.853660e+08
8.910453e+00 3.540705e+08 4.750505e+08
9.034660e+00 3.464827e+08 4.648098e+08
9.160598e+00 3.391158e+08 4.547740e+08
9.288292e+00 3.319884e+08 4.451355e+08
9.417766e+00 3.249953e+08 4.355349e+08
9.549045e+00 3.181246e+08 4.261397e+08
9.682153e+00 3.114249e+08 4.169335e+08
9.817117e+00 3.048490e+08 4.078951e+08
9.953962e+00 2.982778e+08 3.990696e+08
1.009272e+01 2.918815e+08 3.903291e+08
1.023340e+01 2.854510e+08 3.815595e+08
1.037605e+01 2.794629e+08 3.730732e+08
1.052069e+01 2.735423e+08 3.646718e+08
1.066734e+01 2.672832e+08 3.564488e+08
1.081604e+01 2.613286e+08 3.484571e+08
1.096681e+01 2.555296e+08 3.407155e+08
1.111968e+01 2.495952e+08 3.331997e+08
1.127468e+01 2.436801e+08 3.255206e+08
1.143184e+01 2.379170e+08 3.180952e+08
1.159120e+01 2.323139e+08 3.107332e+08
1.175277e+01 2.270873e+08 3.032154e+08
1.191660e+01 2.220389e+08 2.961304e+08
1.208271e+01 2.171377e+08 2.891451e+08
1.225114e+01 2.117962e+08 2.822648e+08
1.242191e+01 2.065983e+08 2.754610e+08
1.259506e+01 2.015572e+08 2.689638e+08
1.277063e+01 1.968623e+08 2.622286e+08
1.294865e+01 1.920974e+08 2.561900e+08
1.312915e+01 1.868530e+08 2.501693e+08
1.331216e+01 1.823735e+08 2.442577e+08
1.349772e+01 1.781086e+08 2.383832e+08
1.368587e+01 1.738232e+08 2.327707e+08
1.387665e+01 1.694970e+08 2.272107e+08
1.407008e+01 1.653850e+08 2.214498e+08
1.426621e+01 1.613540e+08 2.161148e+08
1.446507e+01 1.574092e+08 2.108494e+08
1.466671e+01 1.534650e+08 2.055022e+08
1.487115e+01 1.495739e+08 2.002592e+08
1.507845e+01 1.459116e+08 1.950609e+08
1.528864e+01 1.422886e+08 1.902158e+08
1.550175e+01 1.387456e+08 1.852270e+08
1.571784e+01 1.352209e+08 1.801934e+08
1.593694e+01 1.317760e+08 1.754205e+08
1.615909e+01 1.283250e+08 1.707455e+08
1.638434e+01 1.250187e+08 1.662556e+08
1.661273e+01 1.217873e+08 1.618562e+08
1.684430e+01 1.185037e+08 1.576126e+08
1.707910e+01 1.153142e+08 1.533517e+08
1.731717e+01 1.120433e+08 1.490498e+08
1.755856e+01 1.089492e+08 1.448767e+08
1.780332e+01 1.059167e+08 1.410174e+08
1.805149e+01 1.029159e+08 1.369823e+08
1.830312e+01 1.001312e+08 1.330421e+08
1.855825e+01 9.737522e+07 1.293997e+08
1.881694e+01 9.476944e+07 1.256597e+08
1.907924e+01 9.206662e+07 1.221480e+08
1.934520e+01 8.924462e+07 1.186995e+08
1.961486e+01 8.654961e+07 1.153277e+08
1.988828e+01 8.412410e+07 1.119820e+08
2.016551e+01 8.158330e+07 1.088344e+08
2.044661e+01 7.908548e+07 1.056124e+08
2.073162e+01 7.674440e+07 1.025455e+08
2.102061e+01 7.443458e+07 9.954212e+07
2.131362e+01 7.229599e+07 9.658277e+07
2.161073e+01 7.006727e+07 9.377569e+07
2.191197e+01 6.806069e+07 9.103762e+07
2.221741e+01 6.602780e+07 8.827068e+07
2.252711e+01 6.398874e+07 8.554601e+07
2.284112e+01 6.199280e+07 8.302405e+07
2.315951e+01 6.003205e+07 8.043725e+07
2.348235e+01 5.800843e+07 7.799578e+07
2.380968e+01 5.626546e+07 7.556831e+07
2.414157e+01 5.458073e+07 7.314166e+07
2.447809e+01 5.278301e+07 7.079114e+07
2.481930e+01 5.100239e+07 6.853665e+07
2.516527e+01 4.934142e+07 6.639666e+07
2.551606e+01 4.771364e+07 6.423365e+07
2.587174e+01 4.604521e+07 6.218414e+07
2.623238e+01 4.451749e+07 6.011779e+07
2.659804e+01 4.301476e+07 5.815090e+07
2.696881e+01 4.156346e+07 5.620221e+07
2.734474e+01 4.016252e+07 5.431953e+07
2.772591e+01 3.880598e+07 5.252118e+07
2.811239e+01 3.737271e+07 5.076653e+07
2.850426e+01 3.608296e+07 4.906127e+07
2.890160e+01 3.482618e+07 4.742243e+07
2.930447e+01 3.352263e+07 4.579710e+07
2.971296e+01 3.222241e+07 4.417235e+07
3.012714e+01 3.107723e+07 4.256853e+07
3.054710e+01 2.996975e+07 4.106823e+07
3.097291e+01 2.880649e+07 3.965273e+07
3.140465e+01 2.775615e+07 3.823727e+07
3.184242e+01 2.675269e+07 3.681775e+07
3.228628e+01 2.574390e+07 3.545621e+07
3.273634e+01 2.474818e+07 3.412162e+07
3.319266e+01 2.380451e+07 3.283027e+07
3.365535e+01 2.288015e+07 3.155784e+07
3.412449e+01 2.197208e+07 3.037535e+07
3.460016e+01 2.111419e+07 2.921671e+07
3.508247e+01 2.027705e+07 2.814294e+07
3.557150e+01 1.944468e+07 2.707785e+07
3.606735e+01 1.865232e+07 2.603097e+07
3.657011e+01 1.784608e+07 2.500043e+07
3.707988e+01 1.707522e+07 2.402854e+07
3.759675e+01 1.632198e+07 2.310335e+07
3.812083e+01 1.559883e+07 2.222472e+07
3.865221e+01 1.498724e+07 2.132781e+07
3.919100e+01 1.435060e+07 2.048037e+07
3.973730e+01 1.370821e+07 1.963859e+07
4.029122e+01 1.307067e+07 1.881402e+07
4.085286e+01 1.250847e+07 1.803371e+07
4.142232e+01 1.193197e+07 1.733375e+07
4.199973e+01 1.140926e+07 1.665126e+07
4.258518e+01 1.091108e+07 1.596790e+07
4.317880e+01 1.040829e+07 1.528588e+07
4.378069e+01 9.927428e+06 1.465651e+07
4.439097e+01 9.458872e+06 1.402572e+07
4.500975e+01 8.982549e+06 1.342096e+07
4.563716e+01 8.613792e+06 1.284047e+07
4.627332e+01 8.235686e+06 1.229389e+07
4.691835e+01 7.855950e+06 1.175295e+07
4.757236e+01 7.481732e+06 1.127342e+07
4.823549e+01 7.108875e+06 1.078728e+07
4.890787e+01 6.779364e+06 1.030451e+07
4.958962e+01 6.462349e+06 9.850482e+06
5.028087e+01 6.145301e+06 9.407471e+06
5.098176e+01 5.844623e+06 9.000741e+06
5.169242e+01 5.560303e+06 8.594658e+06
5.241298e+01 5.306807e+06 8.209204e+06
5.314359e+01 5.065342e+06 7.833031e+06
5.388438e+01 4.813496e+06 7.502166e+06
5.463550e+01 4.590255e+06 7.143959e+06
5.539709e+01 4.382622e+06 6.818267e+06
5.616930e+01 4.180385e+06 6.499246e+06
5.695227e+01 3.973117e+06 6.198333e+06
5.774615e+01 3.774620e+06 5.926651e+06
5.855110e+01 3.587096e+06 5.657275e+06
5.936727e+01 3.408636e+06 5.402176e+06
6.019482e+01 3.241460e+06 5.148394e+06
6.103390e+01 3.072927e+06 4.882394e+06
6.188468e+01 2.907703e+06 4.650200e+06
6.274732e+01 2.760591e+06 4.422791e+06
6.362198e+01 2.615154e+06 4.217574e+06
6.450884e+01 2.483146e+06 4.014759e+06
6.540806e+01 2.357456e+06 3.819428e+06
6.631981e+01 2.238233e+06 3.635161e+06
6.724427e+01 2.116982e+06 3.445250e+06
6.818162e+01 2.011592e+06 3.270888e+06
6.913204e+01 1.909639e+06 3.117473e+06
7.009570e+01 1.811059e+06 2.973153e+06
7.107280e+01 1.715970e+06 2.827519e+06
7.206351e+01 1.626033e+06 2.693794e+06
7.306804e+01 1.545171e+06 2.574029e+06
7.408657e+01 1.461627e+06 2.450953e+06
7.511929e+01 1.383742e+06 2.336392e+06
7.616642e+01 1.311333e+06 2.221058e+06
7.722814e+01 1.243473e+06 2.129551e+06
7.830465e+01 1.178475e+06 2.021038e+06
7.939618e+01 1.115775e+06 1.929434e+06
8.050292e+01 1.052523e+06 1.828854e+06
8.162509e+01 9.942876e+05 1.739684e+06
8.276289e+01 9.415037e+05 1.653486e+06
8.391656e+01 8.943095e+05 1.582437e+06
8.508632e+01 8.443761e+05 1.504353e+06
8.627237e+01 7.999271e+05 1.433184e+06
8.747496e+01 7.569754e+05 1.371235e+06
8.869432e+01 7.144011e+05 1.309649e+06
8.993067e+01 6.765697e+05 1.250601e+06
9.118425e+01 6.369879e+05 1.193756e+06
9.245531e+01 6.025870e+05 1.138882e+06
9.374409e+01 5.679714e+05 1.084926e+06
9.505083e+01 5.359809e+05 1.038028e+06
9.637579e+01 5.079317e+05 9.937733e+05
9.771921e+01 4.806296e+05 9.488887e+05
9.908137e+01 4.537400e+05 9.059088e+05
1.004625e+02 4.287439e+05 8.645697e+05
1.018629e+02 4.056000e+05 8.239505e+05
1.032828e+02 3.835833e+05 7.885265e+05
1.047225e+02 3.640915e+05 7.561729e+05
1.061823e+02 3.440418e+05 7.233012e+05
1.076624e+02 3.251871e+05 6.920014e+05
1.091632e+02 3.074140e+05 6.625339e+05
1.106848e+02 2.909161e+05 6.341540e+05
1.122277e+02 2.747271e+05 6.041485e+05
1.137921e+02 2.589926e+05 5.764128e+05
1.153783e+02 2.442577e+05 5.521287e+05
1.169866e+02 2.318039e+05 5.280957e+05
1.186174e+02 2.188723e+05 5.050665e+05
1.202708e+02 2.066323e+05 4.827368e+05
1.219473e+02 1.950026e+05 4.613803e+05
1.236472e+02 1.841122e+05 4.420236e+05
1.253708e+02 1.740546e+05 4.234182e+05
1.271184e+02 1.640872e+05 4.055353e+05
1.288904e+02 1.547338e+05 3.867202e+05
1.306870e+02 1.462431e+05 3.685234e+05
1.325087e+02 1.381396e+05 3.523484e+05
1.343558e+02 1.303273e+05 3.362300e+05
1.362287e+02 1.228426e+05 3.208903e+05
1.381276e+02 1.159939e+05 3.068766e+05
1.400531e+02 1.100096e+05 2.935161e+05
1.420053e+02 1.044985e+05 2.806982e+05
1.439848e+02 9.870087e+04 2.684388e+05
1.459919e+02 9.294872e+04 2.567251e+05
1.480269e+02 8.738573e+04 2.454663e+05
1.500903e+02 8.248687e+04 2.341046e+05
1.521825e+02 7.841736e+04 2.235451e+05
1.543038e+02 7.439680e+04 2.135986e+05
1.564548e+02 7.027800e+04 2.042174e+05
1.586357e+02 6.612740e+04 1.955162e+05
1.608469e+02 6.242697e+04 1.870196e+05
1.630891e+02 5.907229e+04 1.785715e+05
1.653624e+02 5.571995e+04 1.704436e+05
1.676675e+02 5.248631e+04 1.631618e+05
1.700047e+02 4.968423e+04 1.565082e+05
1.723745e+02 4.689570e+04 1.500124e+05
1.747773e+02 4.437316e+04 1.434425e+05
1.772136e+02 4.202439e+04 1.371822e+05
1.796838e+02 3.968665e+04 1.311771e+05
1.821885e+02 3.759633e+04 1.254450e+05
1.847281e+02 3.548215e+04 1.199436e+05
1.873032e+02 3.342101e+04 1.146451e+05
1.899141e+02 3.157550e+04 1.095767e+05
1.925614e+02 2.975413e+04 1.048403e+05
1.952456e+02 2.810406e+04 1.003655e+05
1.979672e+02 2.661096e+04 9.609294e+04
2.007267e+02 2.517126e+04 9.200236e+04
2.035248e+02 2.372399e+04 8.812301e+04
2.063618e+02 2.232290e+04 8.441234e+04
2.092383e+02 2.104677e+04 8.081645e+04
2.121550e+02 1.989142e+04 7.730936e+04
2.151123e+02 1.879002e+04 7.400751e+04
2.181109e+02 1.768713e+04 7.081181e+04
2.211512e+02 1.673535e+04 6.773400e+04
2.242340e+02 1.582196e+04 6.472188e+04
2.273597e+02 1.489445e+04 6.182101e+04
2.305289e+02 1.395767e+04 5.905024e+04
2.337424e+02 1.319472e+04 5.664839e+04
2.370006e+02 1.253645e+04 5.426575e+04
2.403043e+02 1.183324e+04 5.190612e+04
2.436540e+02 1.120972e+04 4.964731e+04
2.470504e+02 1.057633e+04 4.748683e+04
2.504942e+02 9.977165e+03 4.542041e+04
2.539859e+02 9.380191e+03 4.344395e+04
2.575263e+02 8.828475e+03 4.154770e+04
2.611161e+02 8.314522e+03 3.972543e+04
2.647559e+02 7.828012e+03 3.798311e+04
2.684465e+02 7.366367e+03 3.632563e+04
2.721885e+02 6.938043e+03 3.477077e+04
2.759826e+02 6.541602e+03 3.328186e+04
2.798297e+02 6.190147e+03 3.184048e+04
2.837304e+02 5.859648e+03 3.045854e+04
2.876854e+02 5.523428e+03 2.913137e+04
2.916956e+02 5.206549e+03 2.784414e+04
2.957617e+02 4.907733e+03 2.661358e+04
2.998844e+02 4.622637e+03 2.543744e+04
3.040646e+02 4.362483e+03 2.431329e+04
3.083031e+02 4.109671e+03 2.325173e+04
3.126007e+02 3.871507e+03 2.225285e+04
3.169582e+02 3.647142e+03 2.129690e+04
3.213764e+02 3.440939e+03 2.038205e+04
3.258562e+02 3.251573e+03 1.951177e+04
3.303985e+02 3.071699e+03 1.868321e+04
3.350041e+02 2.900171e+03 1.787935e+04
3.396739e+02 2.741012e+03 1.710258e+04
3.444087e+02 2.586132e+03 1.635959e+04
3.492096e+02 2.444426e+03 1.565082e+04
3.540774e+02 2.312071e+03 1.497278e+04
3.590130e+02 2.185316e+03 1.432412e+04
3.640175e+02 2.066011e+03 1.370359e+04
3.690917e+02 1.953218e+03 1.310995e+04
3.742366e+02 1.844782e+03 1.254204e+04
3.794533e+02 1.737476e+03 1.201678e+04
3.847427e+02 1.638568e+03 1.150111e+04
3.901058e+02 1.542285e+03 1.099762e+04
3.955436e+02 1.451658e+03 1.051463e+04
4.010573e+02 1.368717e+03 1.005287e+04
4.066478e+02 1.294035e+03 9.615768e+03
4.123163e+02 1.223816e+03 9.199311e+03
4.180637e+02 1.157654e+03 8.798940e+03
4.238913e+02 1.093888e+03 8.415992e+03
4.298001e+02 1.031446e+03 8.051883e+03
4.357913e+02 9.725682e+02 7.703544e+03
4.418660e+02 9.170503e+02 7.368307e+03
4.480254e+02 8.647009e+02 7.042582e+03
4.542706e+02 8.153391e+02 6.737496e+03
4.606029e+02 7.687945e+02 6.461210e+03
4.670234e+02 7.255250e+02 6.187754e+03
4.735335e+02 6.850044e+02 5.920821e+03
4.801343e+02 6.469398e+02 5.665414e+03
4.868271e+02 6.094616e+02 5.421034e+03
4.936132e+02 5.752909e+02 5.184624e+03
5.004939e+02 5.431813e+02 4.956871e+03
5.074705e+02 5.129497e+02 4.739133e+03
5.145444e+02 4.835487e+02 4.537188e+03
5.217169e+02 4.550709e+02 4.349658e+03
5.289893e+02 4.304605e+02 4.166415e+03
5.363631e+02 4.072827e+02 3.988632e+03
5.438397e+02 3.849187e+02 3.817026e+03
5.514206e+02 3.637922e+02 3.652811e+03
5.591071e+02 3.431310e+02 3.495667e+03
5.669007e+02 3.236427e+02 3.345289e+03
5.748030e+02 3.052955e+02 3.201387e+03
5.828155e+02 2.880594e+02 3.064033e+03
5.909396e+02 2.718487e+02 2.933187e+03
5.991770e+02 2.563706e+02 2.811656e+03
6.075292e+02 2.412538e+02 2.695472e+03
6.159978e+02 2.272835e+02 2.581422e+03
6.245845e+02 2.146642e+02 2.470114e+03
6.332908e+02 2.022694e+02 2.363613e+03
6.421186e+02 1.907487e+02 2.261709e+03
6.510694e+02 1.802044e+02 2.164144e+03
6.601449e+02 1.697594e+02 2.070760e+03
6.693470e+02 1.599270e+02 1.981003e+03
6.786773e+02 1.511325e+02 1.895301e+03
6.881377e+02 1.428626e+02 1.814030e+03
6.977300e+02 1.350449e+02 1.736247e+03
7.074559e+02 1.276548e+02 1.661804e+03
7.173175e+02 1.204487e+02 1.590556e+03
7.273165e+02 1.134828e+02 1.522585e+03
7.374549e+02 1.068460e+02 1.458580e+03
7.477346e+02 1.006050e+02 1.397270e+03
7.581576e+02 9.469667e+01 1.338541e+03
7.687260e+02 8.938427e+01 1.282284e+03
7.794416e+02 8.436967e+01 1.236268e+03
7.903066e+02 7.963619e+01 1.186004e+03
8.013230e+02 7.516888e+01 1.135212e+03
8.124930e+02 7.095804e+01 1.086599e+03
8.238187e+02 6.698287e+01 1.040070e+03
8.353023e+02 6.327655e+01 9.955374e+02
8.469460e+02 5.968759e+01 9.529144e+02
8.587519e+02 5.634328e+01 9.121192e+02
8.707225e+02 5.318618e+01 8.730734e+02
8.828599e+02 5.015800e+01 8.360805e+02
8.951665e+02 4.732229e+01 8.007232e+02
9.076446e+02 4.464799e+01 7.671784e+02
9.202967e+02 4.208582e+01 7.350236e+02
9.331251e+02 3.967058e+01 7.040886e+02
9.461324e+02 3.739392e+01 6.744582e+02
9.593209e+02 3.524875e+01 6.460774e+02
9.726934e+02 3.322655e+01 6.188597e+02
9.862522e+02 3.132026e+01 5.920739e+02
1.000000e+03 2.947810e+01 5.669118e+02
