# Energy(MeV) Fluence_Sferica_Median(p/cm2)
5.000000e-02 4.385819e+11
5.100225e-02 4.289674e+11
5.202458e-02 4.202930e+11
5.306741e-02 4.117956e+11
5.413114e-02 4.030164e+11
5.521620e-02 3.941555e+11
5.632300e-02 3.855926e+11
5.745199e-02 3.775856e+11
5.860361e-02 3.698196e+11
5.977832e-02 3.623261e+11
6.097657e-02 3.549113e+11
6.219884e-02 3.471287e+11
6.344561e-02 3.402381e+11
6.471737e-02 3.333090e+11
6.601463e-02 3.263297e+11
6.733789e-02 3.188038e+11
6.868767e-02 3.121715e+11
7.006451e-02 3.054848e+11
7.146895e-02 2.988383e+11
7.290154e-02 2.921377e+11
7.436284e-02 2.858110e+11
7.585344e-02 2.796956e+11
7.737392e-02 2.736619e+11
7.892487e-02 2.682448e+11
8.050691e-02 2.627608e+11
8.212067e-02 2.570728e+11
8.376677e-02 2.517115e+11
8.544587e-02 2.466216e+11
8.715862e-02 2.411842e+11
8.890571e-02 2.360416e+11
9.068782e-02 2.308566e+11
9.250565e-02 2.259578e+11
9.435992e-02 2.210988e+11
9.625136e-02 2.165922e+11
9.818071e-02 2.113512e+11
1.001487e-01 2.066524e+11
1.021562e-01 2.022792e+11
1.042039e-01 1.977562e+11
1.062927e-01 1.934623e+11
1.084233e-01 1.892683e+11
1.105966e-01 1.851196e+11
1.128135e-01 1.809175e+11
1.150749e-01 1.768316e+11
1.173816e-01 1.730382e+11
1.197345e-01 1.691962e+11
1.221345e-01 1.653046e+11
1.245827e-01 1.614750e+11
1.270800e-01 1.578599e+11
1.296273e-01 1.544780e+11
1.322256e-01 1.512513e+11
1.348761e-01 1.477614e+11
1.375797e-01 1.442859e+11
1.403374e-01 1.411009e+11
1.431505e-01 1.381498e+11
1.460199e-01 1.349521e+11
1.489469e-01 1.320570e+11
1.519325e-01 1.292644e+11
1.549780e-01 1.263805e+11
1.580845e-01 1.237476e+11
1.612533e-01 1.209775e+11
1.644856e-01 1.184060e+11
1.677827e-01 1.157517e+11
1.711459e-01 1.132646e+11
1.745765e-01 1.107130e+11
1.780759e-01 1.083612e+11
1.816454e-01 1.060395e+11
1.852865e-01 1.036330e+11
1.890005e-01 1.014078e+11
1.927890e-01 9.904854e+10
1.966535e-01 9.686306e+10
2.005954e-01 9.467908e+10
2.046163e-01 9.245697e+10
2.087178e-01 9.036668e+10
2.129015e-01 8.823049e+10
2.171691e-01 8.623856e+10
2.215223e-01 8.421601e+10
2.259627e-01 8.227030e+10
2.304921e-01 8.037279e+10
2.351123e-01 7.853798e+10
2.398251e-01 7.673591e+10
2.446324e-01 7.489589e+10
2.495360e-01 7.312538e+10
2.545379e-01 7.148121e+10
2.596401e-01 6.973884e+10
2.648446e-01 6.809316e+10
2.701534e-01 6.650165e+10
2.755686e-01 6.501822e+10
2.810923e-01 6.351037e+10
2.867268e-01 6.193900e+10
2.924742e-01 6.045634e+10
2.983368e-01 5.896439e+10
3.043170e-01 5.758248e+10
3.104170e-01 5.621248e+10
3.166393e-01 5.490816e+10
3.229863e-01 5.363916e+10
3.294605e-01 5.231976e+10
3.360645e-01 5.103078e+10
3.428009e-01 4.981318e+10
3.496723e-01 4.856094e+10
3.566815e-01 4.737368e+10
3.638311e-01 4.624201e+10
3.711241e-01 4.510011e+10
3.785633e-01 4.398407e+10
3.861515e-01 4.290916e+10
3.938919e-01 4.181788e+10
4.017874e-01 4.079341e+10
4.098412e-01 3.978687e+10
4.180565e-01 3.878357e+10
4.264364e-01 3.778769e+10
4.349843e-01 3.683267e+10
4.437035e-01 3.589146e+10
4.525975e-01 3.502676e+10
4.616698e-01 3.413897e+10
4.709239e-01 3.323767e+10
4.803635e-01 3.233765e+10
4.899924e-01 3.147110e+10
4.998143e-01 3.059353e+10
5.098330e-01 2.973712e+10
5.200526e-01 2.897449e+10
5.304770e-01 2.816852e+10
5.411103e-01 2.739476e+10
5.519569e-01 2.663568e+10
5.630208e-01 2.589693e+10
5.743065e-01 2.514332e+10
5.858184e-01 2.444191e+10
5.975611e-01 2.374528e+10
6.095392e-01 2.308016e+10
6.217573e-01 2.244158e+10
6.342204e-01 2.181695e+10
6.469333e-01 2.118596e+10
6.599011e-01 2.054839e+10
6.731287e-01 1.993458e+10
6.866215e-01 1.931592e+10
7.003848e-01 1.871651e+10
7.144240e-01 1.815431e+10
7.287445e-01 1.758848e+10
7.433522e-01 1.705828e+10
7.582526e-01 1.653666e+10
7.734517e-01 1.603768e+10
7.889555e-01 1.554856e+10
8.047701e-01 1.507671e+10
8.209016e-01 1.460561e+10
8.373565e-01 1.415769e+10
8.541413e-01 1.369570e+10
8.712625e-01 1.326353e+10
8.887268e-01 1.280161e+10
9.065413e-01 1.235580e+10
9.247129e-01 1.196158e+10
9.432487e-01 1.155925e+10
9.621560e-01 1.116827e+10
9.814423e-01 1.079632e+10
1.001115e+00 1.042408e+10
1.021183e+00 1.005935e+10
1.041652e+00 9.709477e+09
1.062532e+00 9.355488e+09
1.083830e+00 9.016572e+09
1.105556e+00 8.688450e+09
1.127716e+00 8.360470e+09
1.150321e+00 8.068652e+09
1.173379e+00 7.785442e+09
1.196900e+00 7.507831e+09
1.220892e+00 7.241462e+09
1.245364e+00 6.969555e+09
1.270327e+00 6.714837e+09
1.295791e+00 6.460117e+09
1.321765e+00 6.212976e+09
1.348260e+00 5.967534e+09
1.375286e+00 5.724588e+09
1.402853e+00 5.501195e+09
1.430973e+00 5.273574e+09
1.459657e+00 5.065732e+09
1.488916e+00 4.870209e+09
1.518761e+00 4.664851e+09
1.549204e+00 4.475210e+09
1.580258e+00 4.278133e+09
1.611934e+00 4.098912e+09
1.644245e+00 3.926448e+09
1.677204e+00 3.769091e+09
1.710823e+00 3.606926e+09
1.745117e+00 3.450563e+09
1.780097e+00 3.296956e+09
1.815779e+00 3.148698e+09
1.852176e+00 3.004949e+09
1.889303e+00 2.868437e+09
1.927174e+00 2.730403e+09
1.965804e+00 2.610911e+09
2.005209e+00 2.495936e+09
2.045403e+00 2.382481e+09
2.086403e+00 2.270873e+09
2.128224e+00 2.169483e+09
2.170885e+00 2.067107e+09
2.214400e+00 1.967466e+09
2.258787e+00 1.872479e+09
2.304064e+00 1.787971e+09
2.350249e+00 1.702702e+09
2.397360e+00 1.618341e+09
2.445415e+00 1.539770e+09
2.494433e+00 1.462346e+09
2.544434e+00 1.391779e+09
2.595437e+00 1.326232e+09
2.647462e+00 1.260490e+09
2.700530e+00 1.197189e+09
2.754662e+00 1.138523e+09
2.809879e+00 1.081705e+09
2.866203e+00 1.028179e+09
2.923656e+00 9.751139e+08
2.982260e+00 9.260953e+08
3.042039e+00 8.796812e+08
3.103017e+00 8.351640e+08
3.165216e+00 7.930323e+08
3.228663e+00 7.524405e+08
3.293381e+00 7.138772e+08
3.359397e+00 6.775758e+08
3.426736e+00 6.432727e+08
3.495424e+00 6.101147e+08
3.565490e+00 5.786021e+08
3.636960e+00 5.495722e+08
3.709862e+00 5.217999e+08
3.784226e+00 4.951750e+08
3.860081e+00 4.697407e+08
3.937456e+00 4.459866e+08
4.016382e+00 4.233337e+08
4.096890e+00 4.013281e+08
4.179012e+00 3.803123e+08
4.262780e+00 3.603788e+08
4.348227e+00 3.414094e+08
4.435387e+00 3.235923e+08
4.524294e+00 3.071096e+08
4.614983e+00 2.915987e+08
4.707490e+00 2.765870e+08
4.801851e+00 2.619974e+08
4.898104e+00 2.487621e+08
4.996286e+00 2.359075e+08
5.096436e+00 2.238757e+08
5.198594e+00 2.121298e+08
5.302799e+00 2.010286e+08
5.409093e+00 1.904196e+08
5.517518e+00 1.803528e+08
5.628116e+00 1.709266e+08
5.740932e+00 1.620314e+08
5.856008e+00 1.536218e+08
5.973391e+00 1.455509e+08
6.093127e+00 1.379345e+08
6.215264e+00 1.309250e+08
6.339848e+00 1.242460e+08
6.466930e+00 1.179587e+08
6.596559e+00 1.118278e+08
6.728787e+00 1.059883e+08
6.863665e+00 1.004778e+08
7.001246e+00 9.527317e+07
7.141586e+00 9.035098e+07
7.284738e+00 8.567110e+07
7.430760e+00 8.125392e+07
7.579709e+00 7.697787e+07
7.731644e+00 7.294885e+07
7.886624e+00 6.913644e+07
8.044711e+00 6.543203e+07
8.205967e+00 6.191969e+07
8.370455e+00 5.869495e+07
8.538240e+00 5.567131e+07
8.709388e+00 5.275167e+07
8.883967e+00 5.000795e+07
9.062045e+00 4.740765e+07
9.243693e+00 4.489957e+07
9.428983e+00 4.253356e+07
9.617986e+00 4.035305e+07
9.810778e+00 3.828272e+07
1.000743e+01 3.631916e+07
1.020803e+01 3.444550e+07
1.041265e+01 3.263552e+07
1.062137e+01 3.092258e+07
1.083428e+01 2.928479e+07
1.105145e+01 2.777942e+07
1.127297e+01 2.632257e+07
1.149894e+01 2.493356e+07
1.172944e+01 2.361773e+07
1.196455e+01 2.235487e+07
1.220438e+01 2.118020e+07
1.244902e+01 2.004903e+07
1.269856e+01 1.900598e+07
1.295310e+01 1.800378e+07
1.321274e+01 1.705710e+07
1.347759e+01 1.617570e+07
1.374775e+01 1.532152e+07
1.402332e+01 1.451618e+07
1.430442e+01 1.375207e+07
1.459115e+01 1.302217e+07
1.488362e+01 1.234654e+07
1.518197e+01 1.170198e+07
1.548629e+01 1.108444e+07
1.579671e+01 1.050068e+07
1.611335e+01 9.949693e+06
1.643634e+01 9.438018e+06
1.676581e+01 8.957419e+06
1.710188e+01 8.486953e+06
1.744468e+01 8.035847e+06
1.779436e+01 7.612500e+06
1.815105e+01 7.207054e+06
1.851488e+01 6.819628e+06
1.888601e+01 6.452246e+06
1.926458e+01 6.111293e+06
1.965074e+01 5.788606e+06
2.004464e+01 5.484657e+06
2.044643e+01 5.187899e+06
2.085628e+01 4.912680e+06
2.127434e+01 4.642425e+06
2.170078e+01 4.394127e+06
2.213577e+01 4.159688e+06
2.257948e+01 3.942262e+06
2.303209e+01 3.728721e+06
2.349376e+01 3.526676e+06
2.396469e+01 3.338177e+06
2.444506e+01 3.160297e+06
2.493506e+01 2.990483e+06
2.543488e+01 2.827860e+06
2.594472e+01 2.674199e+06
2.646478e+01 2.529954e+06
2.699527e+01 2.397004e+06
2.753639e+01 2.267655e+06
2.808835e+01 2.146561e+06
2.865138e+01 2.032270e+06
2.922570e+01 1.923460e+06
2.981152e+01 1.822233e+06
3.040909e+01 1.725127e+06
3.101864e+01 1.631696e+06
3.164041e+01 1.544151e+06
3.227464e+01 1.461258e+06
3.292158e+01 1.382871e+06
3.358149e+01 1.308859e+06
3.425463e+01 1.238037e+06
3.494126e+01 1.170768e+06
3.564165e+01 1.108270e+06
3.635609e+01 1.047934e+06
3.708484e+01 9.921641e+05
3.782820e+01 9.389744e+05
3.858647e+01 8.874482e+05
3.935993e+01 8.384456e+05
4.014890e+01 7.928096e+05
4.095368e+01 7.497960e+05
4.177459e+01 7.094506e+05
4.261196e+01 6.714763e+05
4.346611e+01 6.352432e+05
4.433739e+01 6.010638e+05
4.522613e+01 5.686979e+05
4.613268e+01 5.380502e+05
4.705741e+01 5.090305e+05
4.800067e+01 4.814515e+05
4.896284e+01 4.557306e+05
4.994430e+01 4.304897e+05
5.094543e+01 4.071248e+05
5.196662e+01 3.851299e+05
5.300829e+01 3.643221e+05
5.407084e+01 3.446449e+05
5.515468e+01 3.262189e+05
5.626026e+01 3.084602e+05
5.738799e+01 2.917363e+05
5.853833e+01 2.758691e+05
5.971172e+01 2.609765e+05
6.090864e+01 2.467304e+05
6.212955e+01 2.334048e+05
6.337493e+01 2.206877e+05
6.464528e+01 2.084811e+05
6.594109e+01 1.969312e+05
6.726287e+01 1.859643e+05
6.861115e+01 1.755595e+05
6.998645e+01 1.658105e+05
7.138933e+01 1.564812e+05
7.282032e+01 1.477021e+05
7.428000e+01 1.394570e+05
7.576894e+01 1.316658e+05
7.728772e+01 1.245120e+05
7.883694e+01 1.176141e+05
8.041722e+01 1.108923e+05
8.202918e+01 1.045619e+05
8.367345e+01 9.862652e+04
8.535068e+01 9.298686e+04
8.706153e+01 8.756939e+04
8.880667e+01 8.251261e+04
9.058679e+01 7.785188e+04
9.240260e+01 7.344864e+04
9.425480e+01 6.925313e+04
9.614413e+01 6.522977e+04
9.807133e+01 6.149324e+04
1.000372e+02 5.803197e+04
1.020424e+02 5.471068e+04
1.040878e+02 5.158724e+04
1.061743e+02 4.860811e+04
1.083025e+02 4.588221e+04
1.104734e+02 4.329898e+04
1.126879e+02 4.080375e+04
1.149467e+02 3.849754e+04
1.172508e+02 3.629301e+04
1.196011e+02 3.411316e+04
1.219985e+02 3.213462e+04
1.244439e+02 3.025129e+04
1.269384e+02 2.850891e+04
1.294828e+02 2.683589e+04
1.320783e+02 2.523127e+04
1.347258e+02 2.375663e+04
1.374264e+02 2.240137e+04
1.401811e+02 2.106704e+04
1.429910e+02 1.980059e+04
1.458573e+02 1.858012e+04
1.487810e+02 1.751207e+04
1.517633e+02 1.644933e+04
1.548053e+02 1.548311e+04
1.579084e+02 1.459908e+04
1.610737e+02 1.374764e+04
1.643024e+02 1.296360e+04
1.675958e+02 1.219258e+04
1.709552e+02 1.145440e+04
1.743820e+02 1.076468e+04
1.778775e+02 1.011669e+04
1.814430e+02 9.537807e+03
1.850801e+02 8.957502e+03
1.887900e+02 8.401944e+03
1.925743e+02 7.885671e+03
1.964344e+02 7.405070e+03
2.003719e+02 6.943038e+03
2.043883e+02 6.513473e+03
2.084853e+02 6.112305e+03
2.126644e+02 5.727753e+03
2.169272e+02 5.366939e+03
2.212755e+02 5.045822e+03
2.257109e+02 4.724720e+03
2.302353e+02 4.420226e+03
2.348503e+02 4.125693e+03
2.395579e+02 3.843768e+03
2.443598e+02 3.608982e+03
2.492580e+02 3.375241e+03
2.542544e+02 3.165532e+03
2.593509e+02 2.967902e+03
2.645495e+02 2.775558e+03
2.698524e+02 2.605540e+03
2.752616e+02 2.442851e+03
2.807792e+02 2.294960e+03
2.864074e+02 2.140360e+03
2.921484e+02 2.009499e+03
2.980045e+02 1.884918e+03
3.039780e+02 1.760087e+03
3.100712e+02 1.646260e+03
3.162865e+02 1.541318e+03
3.226265e+02 1.446008e+03
3.290935e+02 1.351022e+03
3.356901e+02 1.256475e+03
3.424190e+02 1.170900e+03
3.492828e+02 1.093800e+03
3.562841e+02 1.017612e+03
3.634258e+02 9.516820e+02
3.707107e+02 8.886745e+02
3.781415e+02 8.297226e+02
3.857213e+02 7.733629e+02
3.934531e+02 7.187066e+02
4.013398e+02 6.666524e+02
4.093847e+02 6.199609e+02
4.175907e+02 5.773810e+02
4.259613e+02 5.377524e+02
4.344997e+02 4.981396e+02
4.432092e+02 4.631095e+02
4.520933e+02 4.288807e+02
4.611555e+02 3.964336e+02
4.703993e+02 3.670157e+02
4.798284e+02 3.412152e+02
4.894465e+02 3.161964e+02
4.992574e+02 2.929011e+02
5.092650e+02 2.706336e+02
5.194732e+02 2.510390e+02
5.298860e+02 2.319580e+02
5.405075e+02 2.149110e+02
5.513420e+02 1.983742e+02
5.623936e+02 1.828842e+02
5.736667e+02 1.683619e+02
5.851658e+02 1.553032e+02
5.968954e+02 1.432375e+02
6.088601e+02 1.322418e+02
6.210647e+02 1.215212e+02
6.335139e+02 1.119833e+02
6.462126e+02 1.035372e+02
6.591659e+02 9.532171e+01
6.723788e+02 8.787058e+01
6.858566e+02 8.056350e+01
6.996046e+02 7.388737e+01
7.136281e+02 6.786799e+01
7.279327e+02 6.246737e+01
7.425240e+02 5.755978e+01
7.574079e+02 5.291535e+01
7.725901e+02 4.856735e+01
7.880766e+02 4.445084e+01
8.038735e+02 4.074838e+01
8.199871e+02 3.723292e+01
8.364237e+02 3.416255e+01
8.531897e+02 3.159811e+01
8.702918e+02 2.889825e+01
8.877368e+02 2.626125e+01
9.055314e+02 2.392956e+01
9.236827e+02 2.180880e+01
9.421978e+02 1.981488e+01
9.610841e+02 1.791248e+01
9.803490e+02 1.618122e+01
1.000000e+03 1.470021e+01
