# Energy(MeV) Phi16_Sferica Phi84_Sferica
5.000000e-02 3.394083e+11 5.448715e+11
5.100225e-02 3.329233e+11 5.321545e+11
5.202458e-02 3.266257e+11 5.195875e+11
5.306741e-02 3.204423e+11 5.076141e+11
5.413114e-02 3.148704e+11 4.959322e+11
5.521620e-02 3.085081e+11 4.846010e+11
5.632300e-02 3.022135e+11 4.740611e+11
5.745199e-02 2.967540e+11 4.637781e+11
5.860361e-02 2.909476e+11 4.528456e+11
5.977832e-02 2.851516e+11 4.427065e+11
6.097657e-02 2.796234e+11 4.327950e+11
6.219884e-02 2.741587e+11 4.234002e+11
6.344561e-02 2.692399e+11 4.141698e+11
6.471737e-02 2.638468e+11 4.047758e+11
6.601463e-02 2.584244e+11 3.956115e+11
6.733789e-02 2.532229e+11 3.866837e+11
6.868767e-02 2.486250e+11 3.780314e+11
7.006451e-02 2.441889e+11 3.689813e+11
7.146895e-02 2.397697e+11 3.605474e+11
7.290154e-02 2.350517e+11 3.521936e+11
7.436284e-02 2.307581e+11 3.442226e+11
7.585344e-02 2.266119e+11 3.365933e+11
7.737392e-02 2.218265e+11 3.289076e+11
7.892487e-02 2.173209e+11 3.212704e+11
8.050691e-02 2.133108e+11 3.139082e+11
8.212067e-02 2.093299e+11 3.070208e+11
8.376677e-02 2.052667e+11 2.998538e+11
8.544587e-02 2.008856e+11 2.930322e+11
8.715862e-02 1.965303e+11 2.862565e+11
8.890571e-02 1.928670e+11 2.796939e+11
9.068782e-02 1.889363e+11 2.735163e+11
9.250565e-02 1.851642e+11 2.676682e+11
9.435992e-02 1.807832e+11 2.622236e+11
9.625136e-02 1.773886e+11 2.565647e+11
9.818071e-02 1.737922e+11 2.509248e+11
1.001487e-01 1.702942e+11 2.454540e+11
1.021562e-01 1.671342e+11 2.400128e+11
1.042039e-01 1.637190e+11 2.345284e+11
1.062927e-01 1.600113e+11 2.294081e+11
1.084233e-01 1.564610e+11 2.243781e+11
1.105966e-01 1.531524e+11 2.194757e+11
1.128135e-01 1.499572e+11 2.146628e+11
1.150749e-01 1.470239e+11 2.098938e+11
1.173816e-01 1.440540e+11 2.052118e+11
1.197345e-01 1.406951e+11 2.007972e+11
1.221345e-01 1.374225e+11 1.960879e+11
1.245827e-01 1.343984e+11 1.912438e+11
1.270800e-01 1.314398e+11 1.866887e+11
1.296273e-01 1.287820e+11 1.822964e+11
1.322256e-01 1.262337e+11 1.780388e+11
1.348761e-01 1.236576e+11 1.738589e+11
1.375797e-01 1.211132e+11 1.697866e+11
1.403374e-01 1.184941e+11 1.659455e+11
1.431505e-01 1.155557e+11 1.620195e+11
1.460199e-01 1.131226e+11 1.583302e+11
1.489469e-01 1.106337e+11 1.548441e+11
1.519325e-01 1.082590e+11 1.512591e+11
1.549780e-01 1.057247e+11 1.477194e+11
1.580845e-01 1.032719e+11 1.444160e+11
1.612533e-01 1.008355e+11 1.411822e+11
1.644856e-01 9.837801e+10 1.378584e+11
1.677827e-01 9.597806e+10 1.346161e+11
1.711459e-01 9.373383e+10 1.317010e+11
1.745765e-01 9.196970e+10 1.286953e+11
1.780759e-01 8.970565e+10 1.256416e+11
1.816454e-01 8.756883e+10 1.226861e+11
1.852865e-01 8.549658e+10 1.196664e+11
1.890005e-01 8.331010e+10 1.169221e+11
1.927890e-01 8.122735e+10 1.142694e+11
1.966535e-01 7.931261e+10 1.116622e+11
2.005954e-01 7.740435e+10 1.090078e+11
2.046163e-01 7.547752e+10 1.063526e+11
2.087178e-01 7.368806e+10 1.038915e+11
2.129015e-01 7.207000e+10 1.015415e+11
2.171691e-01 7.013883e+10 9.909402e+10
2.215223e-01 6.834206e+10 9.674487e+10
2.259627e-01 6.668124e+10 9.450810e+10
2.304921e-01 6.514311e+10 9.227347e+10
2.351123e-01 6.355210e+10 9.006747e+10
2.398251e-01 6.184935e+10 8.809159e+10
2.446324e-01 6.022905e+10 8.593527e+10
2.495360e-01 5.855271e+10 8.380744e+10
2.545379e-01 5.691083e+10 8.172906e+10
2.596401e-01 5.534114e+10 7.974168e+10
2.648446e-01 5.379375e+10 7.775078e+10
2.701534e-01 5.227408e+10 7.583612e+10
2.755686e-01 5.089420e+10 7.405243e+10
2.810923e-01 4.962455e+10 7.224964e+10
2.867268e-01 4.827364e+10 7.054173e+10
2.924742e-01 4.692185e+10 6.882527e+10
2.983368e-01 4.567518e+10 6.713065e+10
3.043170e-01 4.448682e+10 6.547095e+10
3.104170e-01 4.323755e+10 6.392062e+10
3.166393e-01 4.196647e+10 6.236154e+10
3.229863e-01 4.071459e+10 6.080923e+10
3.294605e-01 3.949781e+10 5.928028e+10
3.360645e-01 3.828532e+10 5.784730e+10
3.428009e-01 3.719392e+10 5.634906e+10
3.496723e-01 3.619944e+10 5.495687e+10
3.566815e-01 3.513471e+10 5.361587e+10
3.638311e-01 3.404375e+10 5.229778e+10
3.711241e-01 3.308465e+10 5.101811e+10
3.785633e-01 3.219643e+10 4.977339e+10
3.861515e-01 3.119953e+10 4.851084e+10
3.938919e-01 3.029350e+10 4.734015e+10
4.017874e-01 2.942307e+10 4.618692e+10
4.098412e-01 2.857564e+10 4.501452e+10
4.180565e-01 2.769924e+10 4.382571e+10
4.264364e-01 2.678534e+10 4.271405e+10
4.349843e-01 2.590798e+10 4.163731e+10
4.437035e-01 2.502571e+10 4.058367e+10
4.525975e-01 2.421510e+10 3.954103e+10
4.616698e-01 2.348031e+10 3.851887e+10
4.709239e-01 2.275156e+10 3.752038e+10
4.803635e-01 2.199396e+10 3.650341e+10
4.899924e-01 2.125180e+10 3.547459e+10
4.998143e-01 2.055612e+10 3.451239e+10
5.098330e-01 1.980878e+10 3.360212e+10
5.200526e-01 1.907613e+10 3.271067e+10
5.304770e-01 1.849429e+10 3.184077e+10
5.411103e-01 1.784715e+10 3.095875e+10
5.519569e-01 1.722182e+10 3.008409e+10
5.630208e-01 1.665212e+10 2.925913e+10
5.743065e-01 1.619572e+10 2.844054e+10
5.858184e-01 1.564325e+10 2.764101e+10
5.975611e-01 1.514593e+10 2.684545e+10
6.095392e-01 1.469843e+10 2.607348e+10
6.217573e-01 1.411922e+10 2.532738e+10
6.342204e-01 1.364560e+10 2.461222e+10
6.469333e-01 1.319732e+10 2.389509e+10
6.599011e-01 1.270682e+10 2.319953e+10
6.731287e-01 1.231665e+10 2.253318e+10
6.866215e-01 1.191537e+10 2.188867e+10
7.003848e-01 1.151715e+10 2.124577e+10
7.144240e-01 1.104138e+10 2.062393e+10
7.287445e-01 1.068352e+10 2.000386e+10
7.433522e-01 1.034438e+10 1.940456e+10
7.582526e-01 1.001630e+10 1.878375e+10
7.734517e-01 9.674816e+09 1.820485e+10
7.889555e-01 9.369809e+09 1.766061e+10
8.047701e-01 9.038337e+09 1.712497e+10
8.209016e-01 8.695202e+09 1.658966e+10
8.373565e-01 8.362890e+09 1.610363e+10
8.541413e-01 8.092309e+09 1.559453e+10
8.712625e-01 7.737717e+09 1.510348e+10
8.887268e-01 7.426309e+09 1.461943e+10
9.065413e-01 7.147561e+09 1.415428e+10
9.247129e-01 6.863244e+09 1.369879e+10
9.432487e-01 6.620645e+09 1.325821e+10
9.621560e-01 6.395628e+09 1.282968e+10
9.814423e-01 6.191962e+09 1.241697e+10
1.001115e+00 5.993848e+09 1.200834e+10
1.021183e+00 5.801150e+09 1.162212e+10
1.041652e+00 5.572319e+09 1.123194e+10
1.062532e+00 5.378317e+09 1.084904e+10
1.083830e+00 5.200460e+09 1.048206e+10
1.105556e+00 4.981783e+09 1.010465e+10
1.127716e+00 4.776985e+09 9.760761e+09
1.150321e+00 4.605164e+09 9.412987e+09
1.173379e+00 4.449096e+09 9.100210e+09
1.196900e+00 4.276441e+09 8.782194e+09
1.220892e+00 4.073385e+09 8.472583e+09
1.245364e+00 3.896661e+09 8.174811e+09
1.270327e+00 3.746687e+09 7.872198e+09
1.295791e+00 3.607502e+09 7.585418e+09
1.321765e+00 3.423000e+09 7.321344e+09
1.348260e+00 3.246938e+09 7.043342e+09
1.375286e+00 3.080741e+09 6.782399e+09
1.402853e+00 2.928586e+09 6.527053e+09
1.430973e+00 2.786277e+09 6.276248e+09
1.459657e+00 2.666597e+09 6.038360e+09
1.488916e+00 2.535396e+09 5.800386e+09
1.518761e+00 2.432134e+09 5.575946e+09
1.549204e+00 2.327672e+09 5.362613e+09
1.580258e+00 2.208803e+09 5.150439e+09
1.611934e+00 2.112643e+09 4.946410e+09
1.644245e+00 2.012043e+09 4.745346e+09
1.677204e+00 1.930216e+09 4.555969e+09
1.710823e+00 1.837324e+09 4.370031e+09
1.745117e+00 1.744799e+09 4.186539e+09
1.780097e+00 1.656931e+09 4.011589e+09
1.815779e+00 1.578857e+09 3.850487e+09
1.852176e+00 1.515240e+09 3.691562e+09
1.889303e+00 1.453384e+09 3.531772e+09
1.927174e+00 1.384900e+09 3.381779e+09
1.965804e+00 1.314009e+09 3.238634e+09
2.005209e+00 1.251902e+09 3.093759e+09
2.045403e+00 1.201983e+09 2.957463e+09
2.086403e+00 1.153169e+09 2.824659e+09
2.128224e+00 1.100519e+09 2.691978e+09
2.170885e+00 1.052426e+09 2.566320e+09
2.214400e+00 9.941993e+08 2.444126e+09
2.258787e+00 9.450119e+08 2.335435e+09
2.304064e+00 8.991891e+08 2.225485e+09
2.350249e+00 8.531675e+08 2.117320e+09
2.397360e+00 8.094999e+08 2.011631e+09
2.445415e+00 7.691208e+08 1.914843e+09
2.494433e+00 7.362595e+08 1.819689e+09
2.544434e+00 7.051373e+08 1.730326e+09
2.595437e+00 6.754742e+08 1.641921e+09
2.647462e+00 6.468410e+08 1.562063e+09
2.700530e+00 6.170913e+08 1.481336e+09
2.754662e+00 5.890866e+08 1.406736e+09
2.809879e+00 5.603762e+08 1.337238e+09
2.866203e+00 5.330177e+08 1.268973e+09
2.923656e+00 5.065044e+08 1.204906e+09
2.982260e+00 4.789645e+08 1.143319e+09
3.042039e+00 4.542687e+08 1.083163e+09
3.103017e+00 4.308889e+08 1.026056e+09
3.165216e+00 4.090719e+08 9.728921e+08
3.228663e+00 3.882045e+08 9.229782e+08
3.293381e+00 3.691877e+08 8.755238e+08
3.359397e+00 3.513758e+08 8.302708e+08
3.426736e+00 3.343014e+08 7.868223e+08
3.495424e+00 3.173608e+08 7.453538e+08
3.565490e+00 3.010856e+08 7.061434e+08
3.636960e+00 2.856441e+08 6.692411e+08
3.709862e+00 2.709937e+08 6.344331e+08
3.784226e+00 2.570937e+08 6.011062e+08
3.860081e+00 2.439058e+08 5.695258e+08
3.937456e+00 2.313935e+08 5.396542e+08
4.016382e+00 2.195224e+08 5.112460e+08
4.096890e+00 2.082594e+08 4.844591e+08
4.179012e+00 1.975735e+08 4.593390e+08
4.262780e+00 1.874352e+08 4.352167e+08
4.348227e+00 1.778164e+08 4.125578e+08
4.435387e+00 1.686171e+08 3.912864e+08
4.524294e+00 1.595525e+08 3.707354e+08
4.614983e+00 1.509747e+08 3.506967e+08
4.707490e+00 1.428577e+08 3.320598e+08
4.801851e+00 1.351767e+08 3.145879e+08
4.898104e+00 1.279082e+08 2.981934e+08
4.996286e+00 1.210767e+08 2.830131e+08
5.096436e+00 1.146192e+08 2.679943e+08
5.198594e+00 1.088907e+08 2.541433e+08
5.302799e+00 1.035196e+08 2.409375e+08
5.409093e+00 9.843334e+07 2.283076e+08
5.517518e+00 9.359619e+07 2.164113e+08
5.628116e+00 8.899600e+07 2.052904e+08
5.740932e+00 8.462117e+07 1.943773e+08
5.856008e+00 8.037666e+07 1.842194e+08
5.973391e+00 7.619712e+07 1.747450e+08
6.093127e+00 7.240403e+07 1.656925e+08
6.215264e+00 6.843590e+07 1.570868e+08
6.339848e+00 6.477955e+07 1.487806e+08
6.466930e+00 6.153314e+07 1.410754e+08
6.596559e+00 5.847039e+07 1.337506e+08
6.728787e+00 5.541242e+07 1.268125e+08
6.863665e+00 5.239280e+07 1.200183e+08
7.001246e+00 4.953756e+07 1.138041e+08
7.141586e+00 4.683777e+07 1.078022e+08
7.284738e+00 4.430657e+07 1.020934e+08
7.430760e+00 4.192232e+07 9.668908e+07
7.579709e+00 3.966634e+07 9.172568e+07
7.731644e+00 3.753173e+07 8.694291e+07
7.886624e+00 3.563219e+07 8.226940e+07
8.044711e+00 3.385153e+07 7.798600e+07
8.205967e+00 3.215959e+07 7.396229e+07
8.370455e+00 3.055192e+07 7.008592e+07
8.538240e+00 2.902432e+07 6.637438e+07
8.709388e+00 2.757282e+07 6.295726e+07
8.883967e+00 2.619364e+07 5.953391e+07
9.062045e+00 2.488317e+07 5.632594e+07
9.243693e+00 2.363801e+07 5.338106e+07
9.428983e+00 2.245491e+07 5.064025e+07
9.617986e+00 2.133078e+07 4.803925e+07
9.810778e+00 2.026269e+07 4.554338e+07
1.000743e+01 1.924785e+07 4.317869e+07
1.020803e+01 1.828362e+07 4.090519e+07
1.041265e+01 1.736749e+07 3.874800e+07
1.062137e+01 1.649705e+07 3.669368e+07
1.083428e+01 1.567003e+07 3.479144e+07
1.105145e+01 1.488405e+07 3.299965e+07
1.127297e+01 1.410942e+07 3.128673e+07
1.149894e+01 1.337496e+07 2.963360e+07
1.172944e+01 1.267860e+07 2.806899e+07
1.196455e+01 1.201835e+07 2.662815e+07
1.220438e+01 1.139236e+07 2.524854e+07
1.244902e+01 1.079885e+07 2.390835e+07
1.269856e+01 1.023614e+07 2.262671e+07
1.295310e+01 9.702633e+06 2.143210e+07
1.321274e+01 9.196818e+06 2.031603e+07
1.347759e+01 8.717263e+06 1.927116e+07
1.374775e+01 8.262607e+06 1.827785e+07
1.402332e+01 7.831561e+06 1.731798e+07
1.430442e+01 7.422902e+06 1.640672e+07
1.459115e+01 7.035472e+06 1.554322e+07
1.488362e+01 6.668170e+06 1.472406e+07
1.518197e+01 6.319954e+06 1.395051e+07
1.548629e+01 5.989835e+06 1.320760e+07
1.579671e+01 5.676875e+06 1.251701e+07
1.611335e+01 5.380185e+06 1.184927e+07
1.643634e+01 5.079536e+06 1.122367e+07
1.676581e+01 4.803907e+06 1.062971e+07
1.710188e+01 4.547342e+06 1.006732e+07
1.744468e+01 4.278933e+06 9.544879e+06
1.779436e+01 4.042142e+06 9.037606e+06
1.815105e+01 3.819989e+06 8.556478e+06
1.851488e+01 3.610027e+06 8.099818e+06
1.888601e+01 3.416287e+06 7.673523e+06
1.926458e+01 3.216333e+06 7.271887e+06
1.965074e+01 3.039140e+06 6.895883e+06
2.004464e+01 2.866976e+06 6.525845e+06
2.044643e+01 2.711660e+06 6.180529e+06
2.085628e+01 2.564447e+06 5.860240e+06
2.127434e+01 2.432732e+06 5.553044e+06
2.170078e+01 2.307743e+06 5.261812e+06
2.213577e+01 2.189139e+06 4.985376e+06
2.257948e+01 2.076594e+06 4.721961e+06
2.303209e+01 1.969800e+06 4.469268e+06
2.349376e+01 1.864401e+06 4.233301e+06
2.396469e+01 1.759642e+06 4.009646e+06
2.444506e+01 1.658940e+06 3.798371e+06
2.493506e+01 1.563017e+06 3.596285e+06
2.543488e+01 1.473039e+06 3.408817e+06
2.594472e+01 1.395126e+06 3.231040e+06
2.646478e+01 1.320864e+06 3.060725e+06
2.699527e+01 1.238469e+06 2.899651e+06
2.753639e+01 1.170471e+06 2.746455e+06
2.808835e+01 1.103859e+06 2.600268e+06
2.865138e+01 1.040593e+06 2.463922e+06
2.922570e+01 9.816428e+05 2.334826e+06
2.981152e+01 9.297222e+05 2.212173e+06
3.040909e+01 8.805102e+05 2.093061e+06
3.101864e+01 8.346387e+05 1.982797e+06
3.164041e+01 7.914460e+05 1.877626e+06
3.227464e+01 7.504672e+05 1.777132e+06
3.292158e+01 7.115897e+05 1.682437e+06
3.358149e+01 6.747062e+05 1.593419e+06
3.425463e+01 6.350988e+05 1.508731e+06
3.494126e+01 5.990082e+05 1.428942e+06
3.564165e+01 5.672675e+05 1.352080e+06
3.635609e+01 5.377511e+05 1.279997e+06
3.708484e+01 5.099247e+05 1.212103e+06
3.782820e+01 4.835986e+05 1.146918e+06
3.858647e+01 4.586072e+05 1.085680e+06
3.935993e+01 4.348837e+05 1.028622e+06
4.014890e+01 4.084270e+05 9.731912e+05
4.095368e+01 3.823730e+05 9.205639e+05
4.177459e+01 3.608216e+05 8.708021e+05
4.261196e+01 3.368420e+05 8.238676e+05
4.346611e+01 3.183010e+05 7.792613e+05
4.433739e+01 3.011619e+05 7.374728e+05
4.522613e+01 2.849259e+05 6.977022e+05
4.613268e+01 2.691254e+05 6.594183e+05
4.705741e+01 2.533097e+05 6.243729e+05
4.800067e+01 2.392278e+05 5.906191e+05
4.896284e+01 2.259057e+05 5.584654e+05
4.994430e+01 2.134754e+05 5.279881e+05
5.094543e+01 1.996843e+05 4.992202e+05
5.196662e+01 1.857690e+05 4.720940e+05
5.300829e+01 1.746491e+05 4.467237e+05
5.407084e+01 1.647778e+05 4.226217e+05
5.515468e+01 1.554472e+05 3.998792e+05
5.626026e+01 1.468184e+05 3.784751e+05
5.738799e+01 1.385443e+05 3.578347e+05
5.853833e+01 1.300910e+05 3.390119e+05
5.971172e+01 1.224767e+05 3.205963e+05
6.090864e+01 1.151422e+05 3.028867e+05
6.212955e+01 1.087115e+05 2.861401e+05
6.337493e+01 1.024083e+05 2.707446e+05
6.464528e+01 9.660650e+04 2.560921e+05
6.594109e+01 9.116604e+04 2.424347e+05
6.726287e+01 8.604383e+04 2.290089e+05
6.861115e+01 8.120649e+04 2.164959e+05
6.998645e+01 7.663830e+04 2.047463e+05
7.138933e+01 7.228887e+04 1.934791e+05
7.282032e+01 6.803815e+04 1.829201e+05
7.428000e+01 6.416435e+04 1.728588e+05
7.576894e+01 6.055120e+04 1.632770e+05
7.728772e+01 5.713949e+04 1.540539e+05
7.883694e+01 5.391805e+04 1.453106e+05
8.041722e+01 5.087637e+04 1.371980e+05
8.202918e+01 4.800446e+04 1.296981e+05
8.367345e+01 4.462036e+04 1.224324e+05
8.535068e+01 4.204855e+04 1.157934e+05
8.706153e+01 3.956227e+04 1.094203e+05
8.880667e+01 3.697173e+04 1.031932e+05
9.058679e+01 3.485944e+04 9.735314e+04
9.240260e+01 3.293314e+04 9.190289e+04
9.425480e+01 3.107373e+04 8.671152e+04
9.614413e+01 2.911913e+04 8.198796e+04
9.807133e+01 2.745042e+04 7.731018e+04
1.000372e+02 2.578423e+04 7.302038e+04
1.020424e+02 2.389338e+04 6.900474e+04
1.040878e+02 2.220005e+04 6.520757e+04
1.061743e+02 2.079480e+04 6.153665e+04
1.083025e+02 1.959652e+04 5.806960e+04
1.104734e+02 1.838259e+04 5.477354e+04
1.126879e+02 1.730431e+04 5.164117e+04
1.149467e+02 1.610093e+04 4.872020e+04
1.172508e+02 1.500189e+04 4.599167e+04
1.196011e+02 1.404163e+04 4.335108e+04
1.219985e+02 1.311672e+04 4.084562e+04
1.244439e+02 1.236072e+04 3.852794e+04
1.269384e+02 1.155331e+04 3.635053e+04
1.294828e+02 1.074001e+04 3.429461e+04
1.320783e+02 9.887351e+03 3.234268e+04
1.347258e+02 9.314692e+03 3.051157e+04
1.374264e+02 8.740350e+03 2.877855e+04
1.401811e+02 8.091462e+03 2.710750e+04
1.429910e+02 7.529467e+03 2.555340e+04
1.458573e+02 7.060067e+03 2.407080e+04
1.487810e+02 6.584779e+03 2.265745e+04
1.517633e+02 6.055466e+03 2.131915e+04
1.548053e+02 5.671704e+03 2.005716e+04
1.579084e+02 5.215770e+03 1.887884e+04
1.610737e+02 4.769990e+03 1.778151e+04
1.643024e+02 4.390811e+03 1.673964e+04
1.675958e+02 4.105145e+03 1.575596e+04
1.709552e+02 3.750021e+03 1.485872e+04
1.743820e+02 3.425679e+03 1.399994e+04
1.778775e+02 3.135475e+03 1.316660e+04
1.814430e+02 2.892793e+03 1.241272e+04
1.850801e+02 2.701940e+03 1.168909e+04
1.887900e+02 2.471670e+03 1.098558e+04
1.925743e+02 2.285709e+03 1.033483e+04
1.964344e+02 2.140195e+03 9.729764e+03
2.003719e+02 2.003718e+03 9.160255e+03
2.043883e+02 1.878691e+03 8.615113e+03
2.084853e+02 1.759916e+03 8.097750e+03
2.126644e+02 1.608108e+03 7.609200e+03
2.169272e+02 1.484171e+03 7.160047e+03
2.212755e+02 1.394863e+03 6.730333e+03
2.257109e+02 1.305624e+03 6.328898e+03
2.302353e+02 1.202544e+03 5.945284e+03
2.348503e+02 1.095991e+03 5.585882e+03
2.395579e+02 9.999866e+02 5.239822e+03
2.443598e+02 9.239888e+02 4.919560e+03
2.492580e+02 8.499515e+02 4.612226e+03
2.542544e+02 7.938282e+02 4.326124e+03
2.593509e+02 7.428529e+02 4.059624e+03
2.645495e+02 6.950033e+02 3.801984e+03
2.698524e+02 6.447254e+02 3.562845e+03
2.752616e+02 5.890737e+02 3.338812e+03
2.807792e+02 5.367349e+02 3.127685e+03
2.864074e+02 4.920630e+02 2.934492e+03
2.921484e+02 4.531609e+02 2.749320e+03
2.980045e+02 4.208085e+02 2.578687e+03
3.039780e+02 3.906870e+02 2.413144e+03
3.100712e+02 3.609468e+02 2.260610e+03
3.162865e+02 3.283321e+02 2.120010e+03
3.226265e+02 2.984309e+02 1.984484e+03
3.290935e+02 2.710383e+02 1.855672e+03
3.356901e+02 2.459246e+02 1.737155e+03
3.424190e+02 2.221133e+02 1.626420e+03
3.492828e+02 2.001820e+02 1.522892e+03
3.562841e+02 1.802224e+02 1.425126e+03
3.634258e+02 1.637954e+02 1.331760e+03
3.707107e+02 1.477588e+02 1.244068e+03
3.781415e+02 1.332196e+02 1.163598e+03
3.857213e+02 1.225307e+02 1.086659e+03
3.934531e+02 1.124431e+02 1.016869e+03
4.013398e+02 1.002575e+02 9.494871e+02
4.093847e+02 9.002671e+01 8.873162e+02
4.175907e+02 8.152041e+01 8.275054e+02
4.259613e+02 7.419767e+01 7.723153e+02
4.344997e+02 6.851680e+01 7.225781e+02
4.432092e+02 6.113635e+01 6.747618e+02
4.520933e+02 5.483931e+01 6.298961e+02
4.611555e+02 4.938697e+01 5.863176e+02
4.703993e+02 4.409844e+01 5.449711e+02
4.798284e+02 4.010290e+01 5.089397e+02
4.894465e+02 3.588295e+01 4.751941e+02
4.992574e+02 3.157293e+01 4.440200e+02
5.092650e+02 2.773847e+01 4.133490e+02
5.194732e+02 2.433199e+01 3.854474e+02
5.298860e+02 2.183840e+01 3.593599e+02
5.405075e+02 1.907641e+01 3.338152e+02
5.513420e+02 1.678544e+01 3.098724e+02
5.623936e+02 1.477557e+01 2.873891e+02
5.736667e+02 1.281888e+01 2.678854e+02
5.851658e+02 1.110125e+01 2.489756e+02
5.968954e+02 9.596092e+00 2.312140e+02
6.088601e+02 8.279445e+00 2.145591e+02
6.210647e+02 7.129781e+00 1.994008e+02
6.335139e+02 6.133745e+00 1.853109e+02
6.462126e+02 5.266848e+00 1.723309e+02
6.591659e+02 4.519478e+00 1.598083e+02
6.723788e+02 3.878855e+00 1.487623e+02
6.858566e+02 3.322362e+00 1.379593e+02
6.996046e+02 2.839886e+00 1.280869e+02
7.136281e+02 2.422411e+00 1.188763e+02
7.279327e+02 2.061909e+00 1.095688e+02
7.425240e+02 1.751902e+00 1.014967e+02
7.574079e+02 1.486348e+00 9.353821e+01
7.725901e+02 1.258218e+00 8.652658e+01
7.880766e+02 1.062664e+00 7.976852e+01
8.038735e+02 9.216950e-01 7.355504e+01
8.199871e+02 7.743209e-01 6.775727e+01
8.364237e+02 6.469749e-01 6.249828e+01
8.531897e+02 5.391756e-01 5.771157e+01
8.702918e+02 4.481536e-01 5.332551e+01
8.877368e+02 3.714964e-01 4.920696e+01
9.055314e+02 3.071071e-01 4.537180e+01
9.236827e+02 2.531682e-01 4.204009e+01
9.421978e+02 2.084202e-01 3.868199e+01
9.610841e+02 1.714069e-01 3.555950e+01
9.803490e+02 1.405628e-01 3.266668e+01
1.000000e+03 1.150201e-01 3.007826e+01
