# Energy(MeV) Fluence(cm^-2*MeV^-1)
1.000000e+00 1.058353e+10
1.013939e+00 1.035985e+10
1.028073e+00 1.013744e+10
1.042404e+00 9.919749e+09
1.056935e+00 9.706690e+09
1.071668e+00 9.498270e+09
1.086606e+00 9.292143e+09
1.101753e+00 9.087383e+09
1.117111e+00 8.889815e+09
1.132683e+00 8.697483e+09
1.148472e+00 8.509268e+09
1.164481e+00 8.325719e+09
1.180713e+00 8.148739e+09
1.197171e+00 7.975470e+09
1.213859e+00 7.805835e+09
1.230780e+00 7.635427e+09
1.247936e+00 7.468668e+09
1.265332e+00 7.306049e+09
1.282970e+00 7.147208e+09
1.300854e+00 6.995314e+09
1.318987e+00 6.842888e+09
1.337373e+00 6.694740e+09
1.356015e+00 6.554638e+09
1.374917e+00 6.414453e+09
1.394083e+00 6.275561e+09
1.413516e+00 6.135541e+09
1.433219e+00 6.005075e+09
1.453198e+00 5.877263e+09
1.473454e+00 5.751977e+09
1.493993e+00 5.626233e+09
1.514819e+00 5.502104e+09
1.535935e+00 5.381932e+09
1.557345e+00 5.263764e+09
1.579053e+00 5.148788e+09
1.601064e+00 5.036251e+09
1.623382e+00 4.928674e+09
1.646012e+00 4.823843e+09
1.668956e+00 4.723509e+09
1.692220e+00 4.619281e+09
1.715809e+00 4.518658e+09
1.739726e+00 4.421080e+09
1.763977e+00 4.323186e+09
1.788566e+00 4.229291e+09
1.813498e+00 4.136536e+09
1.838777e+00 4.045901e+09
1.864409e+00 3.959112e+09
1.890397e+00 3.870126e+09
1.916748e+00 3.784293e+09
1.943467e+00 3.702471e+09
1.970558e+00 3.623088e+09
1.998026e+00 3.544500e+09
2.025878e+00 3.469513e+09
2.054117e+00 3.396526e+09
2.082751e+00 3.323331e+09
2.111783e+00 3.250581e+09
2.141220e+00 3.181446e+09
2.171068e+00 3.112322e+09
2.201331e+00 3.045675e+09
2.232016e+00 2.980913e+09
2.263130e+00 2.916931e+09
2.294676e+00 2.852716e+09
2.326663e+00 2.789709e+09
2.359095e+00 2.728062e+09
2.391980e+00 2.667747e+09
2.425323e+00 2.608735e+09
2.459130e+00 2.550229e+09
2.493409e+00 2.494431e+09
2.528166e+00 2.439924e+09
2.563407e+00 2.386222e+09
2.599140e+00 2.334165e+09
2.635371e+00 2.282174e+09
2.672106e+00 2.232560e+09
2.709354e+00 2.182885e+09
2.747121e+00 2.133270e+09
2.785414e+00 2.087334e+09
2.824241e+00 2.043420e+09
2.863610e+00 1.998301e+09
2.903527e+00 1.955166e+09
2.944000e+00 1.912112e+09
2.985038e+00 1.870257e+09
3.026648e+00 1.826857e+09
3.068838e+00 1.785234e+09
3.111616e+00 1.745763e+09
3.154990e+00 1.706536e+09
3.198969e+00 1.668248e+09
3.243561e+00 1.630828e+09
3.288774e+00 1.596042e+09
3.334618e+00 1.561629e+09
3.381101e+00 1.526797e+09
3.428231e+00 1.492666e+09
3.476019e+00 1.458957e+09
3.524473e+00 1.426733e+09
3.573602e+00 1.395769e+09
3.623416e+00 1.364698e+09
3.673925e+00 1.334845e+09
3.725137e+00 1.304876e+09
3.777064e+00 1.275949e+09
3.829714e+00 1.247088e+09
3.883098e+00 1.218954e+09
3.937226e+00 1.191815e+09
3.992109e+00 1.164517e+09
4.047757e+00 1.138296e+09
4.104181e+00 1.112652e+09
4.161391e+00 1.087081e+09
4.219398e+00 1.062321e+09
4.278214e+00 1.038911e+09
4.337850e+00 1.015397e+09
4.398317e+00 9.924293e+08
4.459628e+00 9.688651e+08
4.521792e+00 9.469467e+08
4.584824e+00 9.259040e+08
4.648734e+00 9.050472e+08
4.713535e+00 8.848070e+08
4.779239e+00 8.651874e+08
4.845859e+00 8.447299e+08
4.913407e+00 8.255444e+08
4.981898e+00 8.067776e+08
5.051342e+00 7.882545e+08
5.121755e+00 7.703185e+08
5.193150e+00 7.528970e+08
5.265540e+00 7.345052e+08
5.338938e+00 7.181158e+08
5.413360e+00 7.019225e+08
5.488820e+00 6.852573e+08
5.565331e+00 6.690666e+08
5.642908e+00 6.536071e+08
5.721568e+00 6.387570e+08
5.801323e+00 6.240814e+08
5.882190e+00 6.101933e+08
5.964185e+00 5.960386e+08
6.047322e+00 5.823719e+08
6.131619e+00 5.682730e+08
6.217090e+00 5.548733e+08
6.303753e+00 5.419167e+08
6.391624e+00 5.286358e+08
6.480720e+00 5.165817e+08
6.571058e+00 5.046241e+08
6.662655e+00 4.929388e+08
6.755528e+00 4.816836e+08
6.849697e+00 4.704655e+08
6.945178e+00 4.595662e+08
7.041990e+00 4.485568e+08
7.140151e+00 4.378022e+08
7.239681e+00 4.275015e+08
7.340598e+00 4.172362e+08
7.442922e+00 4.072274e+08
7.546673e+00 3.969839e+08
7.651869e+00 3.872524e+08
7.758532e+00 3.779007e+08
7.866682e+00 3.688198e+08
7.976339e+00 3.601574e+08
8.087525e+00 3.517881e+08
8.200261e+00 3.431831e+08
8.314568e+00 3.350763e+08
8.430468e+00 3.269616e+08
8.547985e+00 3.189278e+08
8.667139e+00 3.109678e+08
8.787954e+00 3.034070e+08
8.910453e+00 2.961106e+08
9.034660e+00 2.888263e+08
9.160598e+00 2.817293e+08
9.288292e+00 2.749004e+08
9.417766e+00 2.681366e+08
9.549045e+00 2.616615e+08
9.682153e+00 2.551468e+08
9.817117e+00 2.490065e+08
9.953962e+00 2.429912e+08
1.009272e+01 2.370371e+08
1.023340e+01 2.311211e+08
1.037605e+01 2.254710e+08
1.052069e+01 2.199532e+08
1.066734e+01 2.142203e+08
1.081604e+01 2.088805e+08
1.096681e+01 2.037762e+08
1.111968e+01 1.988022e+08
1.127468e+01 1.939831e+08
1.143184e+01 1.890766e+08
1.159120e+01 1.843571e+08
1.175277e+01 1.796481e+08
1.191660e+01 1.749632e+08
1.208271e+01 1.705997e+08
1.225114e+01 1.662583e+08
1.242191e+01 1.619896e+08
1.259506e+01 1.578155e+08
1.277063e+01 1.537606e+08
1.294865e+01 1.498329e+08
1.312915e+01 1.460232e+08
1.331216e+01 1.422459e+08
1.349772e+01 1.385107e+08
1.368587e+01 1.348780e+08
1.387665e+01 1.314340e+08
1.407008e+01 1.279892e+08
1.426621e+01 1.246932e+08
1.446507e+01 1.213627e+08
1.466671e+01 1.181304e+08
1.487115e+01 1.150229e+08
1.507845e+01 1.120425e+08
1.528864e+01 1.090904e+08
1.550175e+01 1.062484e+08
1.571784e+01 1.034023e+08
1.593694e+01 1.006126e+08
1.615909e+01 9.792939e+07
1.638434e+01 9.534388e+07
1.661273e+01 9.276950e+07
1.684430e+01 9.026298e+07
1.707910e+01 8.784589e+07
1.731717e+01 8.550186e+07
1.755856e+01 8.311921e+07
1.780332e+01 8.087499e+07
1.805149e+01 7.865725e+07
1.830312e+01 7.652348e+07
1.855825e+01 7.443018e+07
1.881694e+01 7.236794e+07
1.907924e+01 7.034657e+07
1.934520e+01 6.836957e+07
1.961486e+01 6.646751e+07
1.988828e+01 6.456098e+07
2.016551e+01 6.273839e+07
2.044661e+01 6.100497e+07
2.073162e+01 5.927773e+07
2.102061e+01 5.761109e+07
2.131362e+01 5.599721e+07
2.161073e+01 5.439496e+07
2.191197e+01 5.282224e+07
2.221741e+01 5.127234e+07
2.252711e+01 4.979968e+07
2.284112e+01 4.837429e+07
2.315951e+01 4.690202e+07
2.348235e+01 4.550037e+07
2.380968e+01 4.421648e+07
2.414157e+01 4.291620e+07
2.447809e+01 4.162377e+07
2.481930e+01 4.037180e+07
2.516527e+01 3.917495e+07
2.551606e+01 3.798492e+07
2.587174e+01 3.685246e+07
2.623238e+01 3.573695e+07
2.659804e+01 3.463140e+07
2.696881e+01 3.358056e+07
2.734474e+01 3.252925e+07
2.772591e+01 3.151036e+07
2.811239e+01 3.052673e+07
2.850426e+01 2.957451e+07
2.890160e+01 2.863477e+07
2.930447e+01 2.775345e+07
2.971296e+01 2.685688e+07
3.012714e+01 2.600783e+07
3.054710e+01 2.518305e+07
3.097291e+01 2.436680e+07
3.140465e+01 2.360480e+07
3.184242e+01 2.284179e+07
3.228628e+01 2.210670e+07
3.273634e+01 2.139732e+07
3.319266e+01 2.070050e+07
3.365535e+01 2.001664e+07
3.412449e+01 1.935403e+07
3.460016e+01 1.872301e+07
3.508247e+01 1.811587e+07
3.557150e+01 1.750809e+07
3.606735e+01 1.690433e+07
3.657011e+01 1.631883e+07
3.707988e+01 1.576086e+07
3.759675e+01 1.521491e+07
3.812083e+01 1.470848e+07
3.865221e+01 1.420711e+07
3.919100e+01 1.371284e+07
3.973730e+01 1.321018e+07
4.029122e+01 1.275363e+07
4.085286e+01 1.231394e+07
4.142232e+01 1.186980e+07
4.199973e+01 1.145041e+07
4.258518e+01 1.103735e+07
4.317880e+01 1.063236e+07
4.378069e+01 1.023884e+07
4.439097e+01 9.866797e+06
4.500975e+01 9.502288e+06
4.563716e+01 9.159272e+06
4.627332e+01 8.815865e+06
4.691835e+01 8.482722e+06
4.757236e+01 8.168931e+06
4.823549e+01 7.871951e+06
4.890787e+01 7.569868e+06
4.958962e+01 7.286821e+06
5.028087e+01 7.013424e+06
5.098176e+01 6.743096e+06
5.169242e+01 6.486713e+06
5.241298e+01 6.238441e+06
5.314359e+01 5.991788e+06
5.388438e+01 5.756654e+06
5.463550e+01 5.528894e+06
5.539709e+01 5.313218e+06
5.616930e+01 5.100961e+06
5.695227e+01 4.896325e+06
5.774615e+01 4.706077e+06
5.855110e+01 4.513471e+06
5.936727e+01 4.329528e+06
6.019482e+01 4.156870e+06
6.103390e+01 3.983380e+06
6.188468e+01 3.814207e+06
6.274732e+01 3.655938e+06
6.362198e+01 3.501269e+06
6.450884e+01 3.351521e+06
6.540806e+01 3.208976e+06
6.631981e+01 3.073052e+06
6.724427e+01 2.940806e+06
6.818162e+01 2.814051e+06
6.913204e+01 2.693786e+06
7.009570e+01 2.576609e+06
7.107280e+01 2.461969e+06
7.206351e+01 2.353402e+06
7.306804e+01 2.249436e+06
7.408657e+01 2.143491e+06
7.511929e+01 2.044324e+06
7.616642e+01 1.954969e+06
7.722814e+01 1.867983e+06
7.830465e+01 1.782151e+06
7.939618e+01 1.700784e+06
8.050292e+01 1.621781e+06
8.162509e+01 1.548023e+06
8.276289e+01 1.474312e+06
8.391656e+01 1.405042e+06
8.508632e+01 1.339946e+06
8.627237e+01 1.276975e+06
8.747496e+01 1.216750e+06
8.869432e+01 1.158738e+06
8.993067e+01 1.103316e+06
9.118425e+01 1.051040e+06
9.245531e+01 1.001978e+06
9.374409e+01 9.555351e+05
9.505083e+01 9.107688e+05
9.637579e+01 8.676966e+05
9.771921e+01 8.270060e+05
9.908137e+01 7.876569e+05
1.004625e+02 7.500642e+05
1.018629e+02 7.141576e+05
1.032828e+02 6.799402e+05
1.047225e+02 6.473623e+05
1.061823e+02 6.163453e+05
1.076624e+02 5.868145e+05
1.091632e+02 5.586985e+05
1.106848e+02 5.319296e+05
1.122277e+02 5.064433e+05
1.137921e+02 4.821782e+05
1.153783e+02 4.590756e+05
1.169866e+02 4.370800e+05
1.186174e+02 4.161382e+05
1.202708e+02 3.961998e+05
1.219473e+02 3.772167e+05
1.236472e+02 3.591432e+05
1.253708e+02 3.419356e+05
1.271184e+02 3.255525e+05
1.288904e+02 3.099543e+05
1.306870e+02 2.951035e+05
1.325087e+02 2.809643e+05
1.343558e+02 2.675024e+05
1.362287e+02 2.546856e+05
1.381276e+02 2.424829e+05
1.400531e+02 2.308648e+05
1.420053e+02 2.198034e+05
1.439848e+02 2.092720e+05
1.459919e+02 1.992452e+05
1.480269e+02 1.896988e+05
1.500903e+02 1.806098e+05
1.521825e+02 1.719562e+05
1.543038e+02 1.637173e+05
1.564548e+02 1.558731e+05
1.586357e+02 1.484048e+05
1.608469e+02 1.412943e+05
1.630891e+02 1.345245e+05
1.653624e+02 1.280790e+05
1.676675e+02 1.219424e+05
1.700047e+02 1.160998e+05
1.723745e+02 1.105371e+05
1.747773e+02 1.052409e+05
1.772136e+02 1.001986e+05
1.796838e+02 9.539775e+04
1.821885e+02 9.082697e+04
1.847281e+02 8.647518e+04
1.873032e+02 8.233191e+04
1.899141e+02 7.838715e+04
1.925614e+02 7.463139e+04
1.952456e+02 7.105559e+04
1.979672e+02 6.765111e+04
2.007267e+02 6.440975e+04
2.035248e+02 6.132369e+04
2.063618e+02 5.838550e+04
2.092383e+02 5.558808e+04
2.121550e+02 5.292469e+04
2.151123e+02 5.038892e+04
2.181109e+02 4.797464e+04
2.211512e+02 4.567603e+04
2.242340e+02 4.348756e+04
2.273597e+02 4.140395e+04
2.305289e+02 3.942017e+04
2.337424e+02 3.753143e+04
2.370006e+02 3.573319e+04
2.403043e+02 3.402111e+04
2.436540e+02 3.239106e+04
2.470504e+02 3.083911e+04
2.504942e+02 2.936152e+04
2.539859e+02 2.795473e+04
2.575263e+02 2.661533e+04
2.611161e+02 2.534012e+04
2.647559e+02 2.412600e+04
2.684465e+02 2.297005e+04
2.721885e+02 2.186949e+04
2.759826e+02 2.082166e+04
2.798297e+02 1.982403e+04
2.837304e+02 1.887421e+04
2.876854e+02 1.796989e+04
2.916956e+02 1.710890e+04
2.957617e+02 1.628916e+04
2.998844e+02 1.550870e+04
3.040646e+02 1.476564e+04
3.083031e+02 1.405817e+04
3.126007e+02 1.338460e+04
3.169582e+02 1.274331e+04
3.213764e+02 1.213274e+04
3.258562e+02 1.155142e+04
3.303985e+02 1.099796e+04
3.350041e+02 1.047102e+04
3.396739e+02 9.969322e+03
3.444087e+02 9.491663e+03
3.492096e+02 9.036890e+03
3.540774e+02 8.603906e+03
3.590130e+02 8.191668e+03
3.640175e+02 7.799182e+03
3.690917e+02 7.425500e+03
3.742366e+02 7.069723e+03
3.794533e+02 6.730992e+03
3.847427e+02 6.408491e+03
3.901058e+02 6.101442e+03
3.955436e+02 5.809104e+03
4.010573e+02 5.530773e+03
4.066478e+02 5.265778e+03
4.123163e+02 5.013479e+03
4.180637e+02 4.773269e+03
4.238913e+02 4.544568e+03
4.298001e+02 4.326824e+03
4.357913e+02 4.119514e+03
4.418660e+02 3.922136e+03
4.480254e+02 3.734215e+03
4.542706e+02 3.555298e+03
4.606029e+02 3.384953e+03
4.670234e+02 3.222770e+03
4.735335e+02 3.068358e+03
4.801343e+02 2.921344e+03
4.868271e+02 2.781374e+03
4.936132e+02 2.648110e+03
5.004939e+02 2.521232e+03
5.074705e+02 2.400432e+03
5.145444e+02 2.285421e+03
5.217169e+02 2.175920e+03
5.289893e+02 2.071665e+03
5.363631e+02 1.972405e+03
5.438397e+02 1.877902e+03
5.514206e+02 1.787926e+03
5.591071e+02 1.702261e+03
5.669007e+02 1.620701e+03
5.748030e+02 1.543049e+03
5.828155e+02 1.469117e+03
5.909396e+02 1.398727e+03
5.991770e+02 1.331710e+03
6.075292e+02 1.267904e+03
6.159978e+02 1.207155e+03
6.245845e+02 1.149317e+03
6.332908e+02 1.094250e+03
6.421186e+02 1.041821e+03
6.510694e+02 9.919043e+02
6.601449e+02 9.443793e+02
6.693470e+02 8.991314e+02
6.786773e+02 8.560514e+02
6.881377e+02 8.150355e+02
6.977300e+02 7.759848e+02
7.074559e+02 7.388051e+02
7.173175e+02 7.034068e+02
7.273165e+02 6.697046e+02
7.374549e+02 6.376171e+02
7.477346e+02 6.070670e+02
7.581576e+02 5.779807e+02
7.687260e+02 5.502879e+02
7.794416e+02 5.239221e+02
7.903066e+02 4.988194e+02
8.013230e+02 4.749196e+02
8.124930e+02 4.521648e+02
8.238187e+02 4.305003e+02
8.353023e+02 4.098737e+02
8.469460e+02 3.902355e+02
8.587519e+02 3.715382e+02
8.707225e+02 3.537367e+02
8.828599e+02 3.367882e+02
8.951665e+02 3.206517e+02
9.076446e+02 3.052883e+02
9.202967e+02 2.906611e+02
9.331251e+02 2.767347e+02
9.461324e+02 2.634755e+02
9.593209e+02 2.508516e+02
9.726934e+02 2.388326e+02
9.862522e+02 2.273895e+02
1.000000e+03 2.164946e+02
