# Energy(MeV) Phi16 Phi84
5.000000e-02 1.662478e+11 2.353950e+11
5.100225e-02 1.629985e+11 2.304068e+11
5.202458e-02 1.597481e+11 2.255626e+11
5.306741e-02 1.565904e+11 2.207447e+11
5.413114e-02 1.535311e+11 2.160663e+11
5.521620e-02 1.505467e+11 2.114869e+11
5.632300e-02 1.476297e+11 2.070043e+11
5.745199e-02 1.447805e+11 2.026670e+11
5.860361e-02 1.419824e+11 1.983215e+11
5.977832e-02 1.392276e+11 1.941173e+11
6.097657e-02 1.365101e+11 1.900020e+11
6.219884e-02 1.338734e+11 1.859681e+11
6.344561e-02 1.312939e+11 1.819708e+11
6.471737e-02 1.288218e+11 1.780421e+11
6.601463e-02 1.263289e+11 1.741981e+11
6.733789e-02 1.239082e+11 1.704327e+11
6.868767e-02 1.214911e+11 1.668917e+11
7.006451e-02 1.190527e+11 1.632549e+11
7.146895e-02 1.167306e+11 1.597551e+11
7.290154e-02 1.143397e+11 1.563157e+11
7.436284e-02 1.119923e+11 1.529311e+11
7.585344e-02 1.097256e+11 1.496195e+11
7.737392e-02 1.075303e+11 1.463703e+11
7.892487e-02 1.054800e+11 1.432688e+11
8.050691e-02 1.034834e+11 1.402120e+11
8.212067e-02 1.014166e+11 1.372776e+11
8.376677e-02 9.934853e+10 1.344035e+11
8.544587e-02 9.736873e+10 1.315771e+11
8.715862e-02 9.551174e+10 1.288100e+11
8.890571e-02 9.371624e+10 1.260968e+11
9.068782e-02 9.196784e+10 1.234122e+11
9.250565e-02 9.020350e+10 1.207473e+11
9.435992e-02 8.848041e+10 1.182016e+11
9.625136e-02 8.678123e+10 1.156730e+11
9.818071e-02 8.505606e+10 1.131670e+11
1.001487e-01 8.339663e+10 1.107476e+11
1.021562e-01 8.187247e+10 1.083556e+11
1.042039e-01 8.026840e+10 1.060301e+11
1.062927e-01 7.873913e+10 1.036575e+11
1.084233e-01 7.715435e+10 1.014634e+11
1.105966e-01 7.566495e+10 9.931891e+10
1.128135e-01 7.408261e+10 9.723911e+10
1.150749e-01 7.260514e+10 9.518868e+10
1.173816e-01 7.111002e+10 9.312814e+10
1.197345e-01 6.969101e+10 9.111672e+10
1.221345e-01 6.832214e+10 8.917783e+10
1.245827e-01 6.693393e+10 8.726641e+10
1.270800e-01 6.560187e+10 8.539492e+10
1.296273e-01 6.432908e+10 8.359094e+10
1.322256e-01 6.299556e+10 8.182120e+10
1.348761e-01 6.170260e+10 8.010850e+10
1.375797e-01 6.050053e+10 7.841830e+10
1.403374e-01 5.931995e+10 7.676758e+10
1.431505e-01 5.811199e+10 7.514024e+10
1.460199e-01 5.693287e+10 7.355812e+10
1.489469e-01 5.580178e+10 7.198828e+10
1.519325e-01 5.471945e+10 7.043410e+10
1.549780e-01 5.366469e+10 6.890277e+10
1.580845e-01 5.268211e+10 6.741305e+10
1.612533e-01 5.160706e+10 6.598193e+10
1.644856e-01 5.057757e+10 6.455639e+10
1.677827e-01 4.955795e+10 6.322326e+10
1.711459e-01 4.856001e+10 6.192810e+10
1.745765e-01 4.759169e+10 6.064171e+10
1.780759e-01 4.661406e+10 5.935917e+10
1.816454e-01 4.566902e+10 5.812019e+10
1.852865e-01 4.474292e+10 5.689466e+10
1.890005e-01 4.384131e+10 5.570799e+10
1.927890e-01 4.298855e+10 5.454509e+10
1.966535e-01 4.214916e+10 5.338888e+10
2.005954e-01 4.132339e+10 5.227814e+10
2.046163e-01 4.052095e+10 5.114074e+10
2.087178e-01 3.972515e+10 5.003846e+10
2.129015e-01 3.892843e+10 4.898385e+10
2.171691e-01 3.810955e+10 4.800481e+10
2.215223e-01 3.735098e+10 4.699646e+10
2.259627e-01 3.661797e+10 4.599883e+10
2.304921e-01 3.587186e+10 4.501673e+10
2.351123e-01 3.515290e+10 4.407461e+10
2.398251e-01 3.448250e+10 4.314698e+10
2.446324e-01 3.382881e+10 4.222947e+10
2.495360e-01 3.315877e+10 4.132877e+10
2.545379e-01 3.247105e+10 4.044216e+10
2.596401e-01 3.183049e+10 3.956468e+10
2.648446e-01 3.117447e+10 3.874556e+10
2.701534e-01 3.056712e+10 3.796038e+10
2.755686e-01 2.993775e+10 3.717223e+10
2.810923e-01 2.933972e+10 3.637502e+10
2.867268e-01 2.876127e+10 3.559271e+10
2.924742e-01 2.819531e+10 3.482758e+10
2.983368e-01 2.764207e+10 3.409192e+10
3.043170e-01 2.707259e+10 3.334563e+10
3.104170e-01 2.654353e+10 3.262320e+10
3.166393e-01 2.600084e+10 3.190716e+10
3.229863e-01 2.547829e+10 3.122858e+10
3.294605e-01 2.498186e+10 3.055356e+10
3.360645e-01 2.449840e+10 2.990440e+10
3.428009e-01 2.400928e+10 2.926022e+10
3.496723e-01 2.353018e+10 2.863900e+10
3.566815e-01 2.305022e+10 2.801644e+10
3.638311e-01 2.257772e+10 2.743788e+10
3.711241e-01 2.212554e+10 2.687511e+10
3.785633e-01 2.165604e+10 2.628781e+10
3.861515e-01 2.122760e+10 2.571446e+10
3.938919e-01 2.081163e+10 2.517753e+10
4.017874e-01 2.040487e+10 2.466199e+10
4.098412e-01 1.999505e+10 2.412880e+10
4.180565e-01 1.960735e+10 2.361468e+10
4.264364e-01 1.921308e+10 2.311685e+10
4.349843e-01 1.882792e+10 2.262964e+10
4.437035e-01 1.844672e+10 2.214301e+10
4.525975e-01 1.805254e+10 2.167593e+10
4.616698e-01 1.768696e+10 2.122570e+10
4.709239e-01 1.732476e+10 2.077001e+10
4.803635e-01 1.698475e+10 2.033054e+10
4.899924e-01 1.664002e+10 1.989782e+10
4.998143e-01 1.628095e+10 1.947281e+10
5.098330e-01 1.594824e+10 1.905927e+10
5.200526e-01 1.563518e+10 1.866758e+10
5.304770e-01 1.530902e+10 1.826442e+10
5.411103e-01 1.500018e+10 1.787793e+10
5.519569e-01 1.467908e+10 1.749574e+10
5.630208e-01 1.438294e+10 1.713719e+10
5.743065e-01 1.407082e+10 1.676324e+10
5.858184e-01 1.378085e+10 1.640724e+10
5.975611e-01 1.350066e+10 1.606303e+10
6.095392e-01 1.321648e+10 1.572404e+10
6.217573e-01 1.293931e+10 1.539537e+10
6.342204e-01 1.266925e+10 1.507272e+10
6.469333e-01 1.240443e+10 1.475773e+10
6.599011e-01 1.216186e+10 1.443617e+10
6.731287e-01 1.188789e+10 1.412759e+10
6.866215e-01 1.165014e+10 1.382598e+10
7.003848e-01 1.139532e+10 1.353229e+10
7.144240e-01 1.115520e+10 1.324368e+10
7.287445e-01 1.091793e+10 1.295994e+10
7.433522e-01 1.069110e+10 1.268679e+10
7.582526e-01 1.046346e+10 1.241454e+10
7.734517e-01 1.025109e+10 1.214860e+10
7.889555e-01 1.003580e+10 1.188826e+10
8.047701e-01 9.831613e+09 1.163418e+10
8.209016e-01 9.620212e+09 1.138521e+10
8.373565e-01 9.417042e+09 1.114357e+10
8.541413e-01 9.230187e+09 1.090561e+10
8.712625e-01 9.029501e+09 1.068473e+10
8.887268e-01 8.830397e+09 1.045869e+10
9.065413e-01 8.650146e+09 1.023725e+10
9.247129e-01 8.464932e+09 1.001930e+10
9.432487e-01 8.277494e+09 9.806098e+09
9.621560e-01 8.099282e+09 9.592926e+09
9.814423e-01 7.920221e+09 9.392665e+09
1.001115e+00 7.754750e+09 9.187315e+09
1.021183e+00 7.583528e+09 8.995571e+09
1.041652e+00 7.419879e+09 8.805802e+09
1.062532e+00 7.259795e+09 8.625317e+09
1.083830e+00 7.102262e+09 8.446894e+09
1.105556e+00 6.943056e+09 8.264042e+09
1.127716e+00 6.790216e+09 8.088935e+09
1.150321e+00 6.640349e+09 7.917937e+09
1.173379e+00 6.492570e+09 7.747599e+09
1.196900e+00 6.347320e+09 7.582546e+09
1.220892e+00 6.210423e+09 7.421799e+09
1.245364e+00 6.077975e+09 7.268803e+09
1.270327e+00 5.944270e+09 7.112291e+09
1.295791e+00 5.812125e+09 6.953792e+09
1.321765e+00 5.681692e+09 6.810042e+09
1.348260e+00 5.554841e+09 6.662500e+09
1.375286e+00 5.434389e+09 6.515496e+09
1.402853e+00 5.316511e+09 6.372846e+09
1.430973e+00 5.196738e+09 6.233777e+09
1.459657e+00 5.082450e+09 6.098171e+09
1.488916e+00 4.965854e+09 5.959887e+09
1.518761e+00 4.853959e+09 5.829946e+09
1.549204e+00 4.747337e+09 5.706763e+09
1.580258e+00 4.643660e+09 5.584688e+09
1.611934e+00 4.541553e+09 5.460499e+09
1.644245e+00 4.441561e+09 5.340059e+09
1.677204e+00 4.340756e+09 5.223518e+09
1.710823e+00 4.242086e+09 5.111415e+09
1.745117e+00 4.149832e+09 4.998217e+09
1.780097e+00 4.054786e+09 4.891242e+09
1.815779e+00 3.961693e+09 4.785388e+09
1.852176e+00 3.870167e+09 4.679027e+09
1.889303e+00 3.779774e+09 4.574773e+09
1.927174e+00 3.693445e+09 4.469324e+09
1.965804e+00 3.608863e+09 4.371587e+09
2.005209e+00 3.525294e+09 4.279048e+09
2.045403e+00 3.445544e+09 4.179347e+09
2.086403e+00 3.366836e+09 4.087045e+09
2.128224e+00 3.288316e+09 3.994923e+09
2.170885e+00 3.211918e+09 3.904119e+09
2.214400e+00 3.137092e+09 3.820968e+09
2.258787e+00 3.063812e+09 3.737738e+09
2.304064e+00 2.993131e+09 3.651936e+09
2.350249e+00 2.923876e+09 3.568724e+09
2.397360e+00 2.855656e+09 3.490101e+09
2.445415e+00 2.788960e+09 3.412330e+09
2.494433e+00 2.721976e+09 3.335171e+09
2.544434e+00 2.657359e+09 3.259111e+09
2.595437e+00 2.593855e+09 3.185754e+09
2.647462e+00 2.532148e+09 3.113469e+09
2.700530e+00 2.473778e+09 3.041006e+09
2.754662e+00 2.415010e+09 2.969750e+09
2.809879e+00 2.357262e+09 2.900225e+09
2.866203e+00 2.302328e+09 2.835104e+09
2.923656e+00 2.247722e+09 2.770489e+09
2.982260e+00 2.194023e+09 2.708168e+09
3.042039e+00 2.142724e+09 2.647448e+09
3.103017e+00 2.091914e+09 2.587722e+09
3.165216e+00 2.040803e+09 2.528627e+09
3.228663e+00 1.990651e+09 2.469278e+09
3.293381e+00 1.942303e+09 2.409796e+09
3.359397e+00 1.895617e+09 2.353726e+09
3.426736e+00 1.850802e+09 2.299997e+09
3.495424e+00 1.806283e+09 2.245721e+09
3.565490e+00 1.761207e+09 2.193168e+09
3.636960e+00 1.717456e+09 2.140386e+09
3.709862e+00 1.675241e+09 2.088674e+09
3.784226e+00 1.633376e+09 2.038309e+09
3.860081e+00 1.594066e+09 1.988781e+09
3.937456e+00 1.555634e+09 1.940709e+09
4.016382e+00 1.517349e+09 1.893728e+09
4.096890e+00 1.480133e+09 1.848458e+09
4.179012e+00 1.444007e+09 1.803235e+09
4.262780e+00 1.407641e+09 1.758574e+09
4.348227e+00 1.373373e+09 1.715554e+09
4.435387e+00 1.338865e+09 1.673682e+09
4.524294e+00 1.302921e+09 1.633353e+09
4.614983e+00 1.268743e+09 1.593018e+09
4.707490e+00 1.237024e+09 1.552701e+09
4.801851e+00 1.204603e+09 1.514404e+09
4.898104e+00 1.173631e+09 1.476377e+09
4.996286e+00 1.144195e+09 1.439226e+09
5.096436e+00 1.115216e+09 1.402556e+09
5.198594e+00 1.085696e+09 1.365998e+09
5.302799e+00 1.057199e+09 1.331965e+09
5.409093e+00 1.029107e+09 1.298291e+09
5.517518e+00 1.002180e+09 1.263966e+09
5.628116e+00 9.759453e+08 1.230709e+09
5.740932e+00 9.504287e+08 1.197729e+09
5.856008e+00 9.252490e+08 1.166322e+09
5.973391e+00 9.009917e+08 1.136186e+09
6.093127e+00 8.765280e+08 1.105864e+09
6.215264e+00 8.525940e+08 1.075563e+09
6.339848e+00 8.289795e+08 1.046308e+09
6.466930e+00 8.061908e+08 1.017816e+09
6.596559e+00 7.836978e+08 9.896312e+08
6.728787e+00 7.618042e+08 9.625265e+08
6.863665e+00 7.409618e+08 9.373728e+08
7.001246e+00 7.202767e+08 9.123758e+08
7.141586e+00 6.995650e+08 8.870313e+08
7.284738e+00 6.794607e+08 8.632190e+08
7.430760e+00 6.599671e+08 8.387460e+08
7.579709e+00 6.409420e+08 8.146589e+08
7.731644e+00 6.224683e+08 7.914489e+08
7.886624e+00 6.046628e+08 7.691604e+08
8.044711e+00 5.877593e+08 7.469603e+08
8.205967e+00 5.705486e+08 7.261019e+08
8.370455e+00 5.540506e+08 7.048010e+08
8.538240e+00 5.375181e+08 6.843788e+08
8.709388e+00 5.219158e+08 6.647504e+08
8.883967e+00 5.067536e+08 6.452602e+08
9.062045e+00 4.915693e+08 6.261449e+08
9.243693e+00 4.769041e+08 6.070389e+08
9.428983e+00 4.623457e+08 5.886850e+08
9.617986e+00 4.486083e+08 5.704603e+08
9.810778e+00 4.351244e+08 5.526082e+08
1.000743e+01 4.215229e+08 5.356807e+08
1.020803e+01 4.079499e+08 5.190587e+08
1.041265e+01 3.953955e+08 5.026675e+08
1.062137e+01 3.829153e+08 4.865297e+08
1.083428e+01 3.705331e+08 4.702341e+08
1.105145e+01 3.585750e+08 4.555284e+08
1.127297e+01 3.470022e+08 4.413415e+08
1.149894e+01 3.356704e+08 4.269708e+08
1.172944e+01 3.246884e+08 4.133187e+08
1.196455e+01 3.141676e+08 3.996027e+08
1.220438e+01 3.039745e+08 3.868236e+08
1.244902e+01 2.940044e+08 3.740687e+08
1.269856e+01 2.842962e+08 3.616686e+08
1.295310e+01 2.749529e+08 3.495805e+08
1.321274e+01 2.657916e+08 3.381407e+08
1.347759e+01 2.569182e+08 3.264447e+08
1.374775e+01 2.480504e+08 3.154119e+08
1.402332e+01 2.393834e+08 3.040993e+08
1.430442e+01 2.308510e+08 2.932983e+08
1.459115e+01 2.228339e+08 2.829755e+08
1.488362e+01 2.148249e+08 2.730151e+08
1.518197e+01 2.069928e+08 2.633782e+08
1.548629e+01 1.993590e+08 2.541370e+08
1.579671e+01 1.919222e+08 2.450345e+08
1.611335e+01 1.849480e+08 2.359431e+08
1.643634e+01 1.781549e+08 2.269092e+08
1.676581e+01 1.715929e+08 2.183929e+08
1.710188e+01 1.651446e+08 2.098023e+08
1.744468e+01 1.588635e+08 2.016266e+08
1.779436e+01 1.527087e+08 1.939906e+08
1.815105e+01 1.465124e+08 1.862276e+08
1.851488e+01 1.405206e+08 1.789308e+08
1.888601e+01 1.349658e+08 1.719089e+08
1.926458e+01 1.293978e+08 1.651944e+08
1.965074e+01 1.241597e+08 1.583286e+08
2.004464e+01 1.188907e+08 1.517485e+08
2.044643e+01 1.138458e+08 1.453794e+08
2.085628e+01 1.089407e+08 1.391807e+08
2.127434e+01 1.042170e+08 1.332932e+08
2.170078e+01 9.980302e+07 1.278290e+08
2.213577e+01 9.519473e+07 1.224562e+08
2.257948e+01 9.105844e+07 1.170967e+08
2.303209e+01 8.701545e+07 1.120755e+08
2.349376e+01 8.307464e+07 1.071828e+08
2.396469e+01 7.921001e+07 1.025468e+08
2.444506e+01 7.553262e+07 9.782537e+07
2.493506e+01 7.189463e+07 9.331716e+07
2.543488e+01 6.843780e+07 8.902009e+07
2.594472e+01 6.516070e+07 8.481070e+07
2.646478e+01 6.191152e+07 8.089610e+07
2.699527e+01 5.884051e+07 7.702653e+07
2.753639e+01 5.591089e+07 7.339717e+07
2.808835e+01 5.319151e+07 6.986156e+07
2.865138e+01 5.048650e+07 6.645740e+07
2.922570e+01 4.777572e+07 6.316195e+07
2.981152e+01 4.522381e+07 5.998368e+07
3.040909e+01 4.293552e+07 5.697100e+07
3.101864e+01 4.070185e+07 5.408416e+07
3.164041e+01 3.851509e+07 5.127726e+07
3.227464e+01 3.640959e+07 4.863455e+07
3.292158e+01 3.433800e+07 4.605066e+07
3.358149e+01 3.239636e+07 4.358222e+07
3.425463e+01 3.055450e+07 4.120709e+07
3.494126e+01 2.874382e+07 3.900750e+07
3.564165e+01 2.700535e+07 3.689823e+07
3.635609e+01 2.542182e+07 3.491179e+07
3.708484e+01 2.384703e+07 3.297183e+07
3.782820e+01 2.235940e+07 3.108327e+07
3.858647e+01 2.099723e+07 2.931302e+07
3.935993e+01 1.963934e+07 2.761255e+07
4.014890e+01 1.842954e+07 2.602818e+07
4.095368e+01 1.721421e+07 2.448927e+07
4.177459e+01 1.604773e+07 2.303407e+07
4.261196e+01 1.494535e+07 2.161908e+07
4.346611e+01 1.394479e+07 2.027910e+07
4.433739e+01 1.296408e+07 1.906859e+07
4.522613e+01 1.206333e+07 1.787738e+07
4.613268e+01 1.121515e+07 1.673168e+07
4.705741e+01 1.042206e+07 1.566626e+07
4.800067e+01 9.659170e+06 1.466082e+07
4.896284e+01 8.959852e+06 1.369612e+07
4.994430e+01 8.290989e+06 1.278967e+07
5.094543e+01 7.672412e+06 1.193373e+07
5.196662e+01 7.102171e+06 1.112493e+07
5.300829e+01 6.547738e+06 1.036943e+07
5.407084e+01 6.068311e+06 9.670035e+06
5.515468e+01 5.608461e+06 8.999668e+06
5.626026e+01 5.181461e+06 8.346316e+06
5.738799e+01 4.780927e+06 7.737865e+06
5.853833e+01 4.404423e+06 7.181044e+06
5.971172e+01 4.056297e+06 6.660920e+06
6.090864e+01 3.735942e+06 6.162095e+06
6.212955e+01 3.442665e+06 5.695553e+06
6.337493e+01 3.183081e+06 5.259366e+06
6.464528e+01 2.924958e+06 4.842965e+06
6.594109e+01 2.671587e+06 4.462974e+06
6.726287e+01 2.461701e+06 4.096788e+06
6.861115e+01 2.260840e+06 3.754912e+06
6.998645e+01 2.081978e+06 3.445934e+06
7.138933e+01 1.920762e+06 3.162937e+06
7.282032e+01 1.764009e+06 2.900896e+06
7.428000e+01 1.618581e+06 2.654486e+06
7.576894e+01 1.485445e+06 2.424518e+06
7.728772e+01 1.366840e+06 2.212027e+06
7.883694e+01 1.257793e+06 2.010134e+06
8.041722e+01 1.157959e+06 1.830194e+06
8.202918e+01 1.063383e+06 1.661814e+06
8.367345e+01 9.749941e+05 1.510661e+06
8.535068e+01 8.967236e+05 1.372075e+06
8.706153e+01 8.203271e+05 1.246608e+06
8.880667e+01 7.535111e+05 1.128489e+06
9.058679e+01 6.909087e+05 1.025587e+06
9.240260e+01 6.325450e+05 9.346145e+05
9.425480e+01 5.794608e+05 8.482177e+05
9.614413e+01 5.304870e+05 7.726295e+05
9.807133e+01 4.849722e+05 7.069300e+05
1.000372e+02 4.428589e+05 6.436247e+05
1.020424e+02 4.051037e+05 5.849707e+05
1.040878e+02 3.703422e+05 5.349426e+05
1.061743e+02 3.384413e+05 4.861803e+05
1.083025e+02 3.092201e+05 4.426224e+05
1.104734e+02 2.823709e+05 4.034978e+05
1.126879e+02 2.574070e+05 3.693965e+05
1.149467e+02 2.341437e+05 3.368885e+05
1.172508e+02 2.134702e+05 3.074604e+05
1.196011e+02 1.943828e+05 2.803926e+05
1.219985e+02 1.772443e+05 2.561007e+05
1.244439e+02 1.614967e+05 2.348547e+05
1.269384e+02 1.472460e+05 2.143947e+05
1.294828e+02 1.344276e+05 1.961546e+05
1.320783e+02 1.224298e+05 1.791839e+05
1.347258e+02 1.114672e+05 1.630163e+05
1.374264e+02 1.017663e+05 1.492011e+05
1.401811e+02 9.271168e+04 1.370861e+05
1.429910e+02 8.394971e+04 1.258424e+05
1.458573e+02 7.594624e+04 1.150811e+05
1.487810e+02 6.915909e+04 1.059412e+05
1.517633e+02 6.285669e+04 9.730968e+04
1.548053e+02 5.701248e+04 8.951506e+04
1.579084e+02 5.173043e+04 8.192348e+04
1.610737e+02 4.693430e+04 7.518559e+04
1.643024e+02 4.237768e+04 6.909996e+04
1.675958e+02 3.833153e+04 6.349360e+04
1.709552e+02 3.480162e+04 5.864925e+04
1.743820e+02 3.148852e+04 5.389778e+04
1.778775e+02 2.852234e+04 4.948976e+04
1.814430e+02 2.589609e+04 4.569976e+04
1.850801e+02 2.350974e+04 4.222039e+04
1.887900e+02 2.129493e+04 3.880625e+04
1.925743e+02 1.922871e+04 3.581203e+04
1.964344e+02 1.736218e+04 3.297587e+04
2.003719e+02 1.565974e+04 3.041298e+04
2.043883e+02 1.416195e+04 2.797583e+04
2.084853e+02 1.280988e+04 2.577080e+04
2.126644e+02 1.155608e+04 2.378467e+04
2.169272e+02 1.042200e+04 2.191598e+04
2.212755e+02 9.419345e+03 2.020772e+04
2.257109e+02 8.528714e+03 1.860140e+04
2.302353e+02 7.736878e+03 1.714544e+04
2.348503e+02 7.003777e+03 1.580024e+04
2.395579e+02 6.334074e+03 1.456890e+04
2.443598e+02 5.717153e+03 1.341119e+04
2.492580e+02 5.156340e+03 1.232303e+04
2.542544e+02 4.646739e+03 1.136135e+04
2.593509e+02 4.167688e+03 1.047843e+04
2.645495e+02 3.747546e+03 9.664680e+03
2.698524e+02 3.369771e+03 8.903313e+03
2.752616e+02 3.044278e+03 8.204276e+03
2.807792e+02 2.738424e+03 7.560125e+03
2.864074e+02 2.472779e+03 6.966551e+03
2.921484e+02 2.237179e+03 6.417165e+03
2.980045e+02 2.025932e+03 5.909778e+03
3.039780e+02 1.831446e+03 5.440576e+03
3.100712e+02 1.653404e+03 5.011024e+03
3.162865e+02 1.495110e+03 4.610587e+03
3.226265e+02 1.352920e+03 4.246049e+03
3.290935e+02 1.220582e+03 3.919552e+03
3.356901e+02 1.106108e+03 3.612976e+03
3.424190e+02 1.003669e+03 3.330582e+03
3.492828e+02 9.075285e+02 3.068393e+03
3.562841e+02 8.180409e+02 2.825412e+03
3.634258e+02 7.359117e+02 2.597145e+03
3.707107e+02 6.635045e+02 2.386151e+03
3.781415e+02 5.995807e+02 2.196281e+03
3.857213e+02 5.429380e+02 2.032053e+03
3.934531e+02 4.918380e+02 1.876070e+03
4.013398e+02 4.455475e+02 1.729456e+03
4.093847e+02 4.033268e+02 1.592928e+03
4.175907e+02 3.651988e+02 1.467178e+03
4.259613e+02 3.293375e+02 1.351356e+03
4.344997e+02 2.967022e+02 1.244677e+03
4.432092e+02 2.680289e+02 1.147146e+03
4.520933e+02 2.423492e+02 1.057257e+03
4.611555e+02 2.193665e+02 9.750669e+02
4.703993e+02 1.985702e+02 9.006423e+02
4.798284e+02 1.793751e+02 8.311491e+02
4.894465e+02 1.621627e+02 7.657522e+02
4.992574e+02 1.466031e+02 7.056722e+02
5.092650e+02 1.326622e+02 6.508054e+02
5.194732e+02 1.196992e+02 6.005177e+02
5.298860e+02 1.081991e+02 5.542427e+02
5.405075e+02 9.783312e+01 5.114699e+02
5.513420e+02 8.850911e+01 4.716325e+02
5.623936e+02 7.985795e+01 4.347435e+02
5.736667e+02 7.218648e+01 4.014356e+02
5.851658e+02 6.513795e+01 3.703805e+02
5.968954e+02 5.883744e+01 3.413164e+02
6.088601e+02 5.327274e+01 3.144932e+02
6.210647e+02 4.815210e+01 2.897073e+02
6.335139e+02 4.346753e+01 2.670517e+02
6.462126e+02 3.925285e+01 2.458294e+02
6.591659e+02 3.546193e+01 2.265177e+02
6.723788e+02 3.212470e+01 2.087232e+02
6.858566e+02 2.914142e+01 1.923266e+02
6.996046e+02 2.639457e+01 1.772182e+02
7.136281e+02 2.381105e+01 1.632967e+02
7.279327e+02 2.148044e+01 1.504689e+02
7.425240e+02 1.937798e+01 1.386488e+02
7.574079e+02 1.751935e+01 1.277537e+02
7.725901e+02 1.584412e+01 1.179070e+02
7.880766e+02 1.430477e+01 1.088576e+02
8.038735e+02 1.294591e+01 1.005028e+02
8.199871e+02 1.172338e+01 9.278931e+01
8.364237e+02 1.057724e+01 8.566784e+01
8.531897e+02 9.539810e+00 7.909297e+01
8.702918e+02 8.604131e+00 7.302274e+01
8.877368e+02 7.760225e+00 6.741842e+01
9.055314e+02 6.999091e+00 6.223799e+01
9.236827e+02 6.312610e+00 5.738166e+01
9.421978e+02 5.693461e+00 5.284314e+01
9.610841e+02 5.136239e+00 4.866360e+01
9.803490e+02 4.647864e+00 4.481463e+01
1.000000e+03 4.206198e+00 4.127010e+01
