# Energy(MeV) Sferica_Fluence(cm^-2*MeV^-1)
5.000000e-02 7.936696e+11
5.100225e-02 7.772925e+11
5.202458e-02 7.614604e+11
5.306741e-02 7.457441e+11
5.413114e-02 7.301640e+11
5.521620e-02 7.151930e+11
5.632300e-02 7.007505e+11
5.745199e-02 6.863744e+11
5.860361e-02 6.725565e+11
5.977832e-02 6.589424e+11
6.097657e-02 6.454437e+11
6.219884e-02 6.323326e+11
6.344561e-02 6.193438e+11
6.471737e-02 6.064471e+11
6.601463e-02 5.941559e+11
6.733789e-02 5.822839e+11
6.868767e-02 5.707908e+11
7.006451e-02 5.593058e+11
7.146895e-02 5.480417e+11
7.290154e-02 5.368774e+11
7.436284e-02 5.259238e+11
7.585344e-02 5.151911e+11
7.737392e-02 5.044534e+11
7.892487e-02 4.941423e+11
8.050691e-02 4.839866e+11
8.212067e-02 4.740668e+11
8.376677e-02 4.644283e+11
8.544587e-02 4.548832e+11
8.715862e-02 4.454765e+11
8.890571e-02 4.363813e+11
9.068782e-02 4.274517e+11
9.250565e-02 4.187306e+11
9.435992e-02 4.100737e+11
9.625136e-02 4.018212e+11
9.818071e-02 3.935732e+11
1.001487e-01 3.855102e+11
1.021562e-01 3.776421e+11
1.042039e-01 3.699883e+11
1.062927e-01 3.624959e+11
1.084233e-01 3.549403e+11
1.105966e-01 3.475237e+11
1.128135e-01 3.402512e+11
1.150749e-01 3.331249e+11
1.173816e-01 3.262267e+11
1.197345e-01 3.194715e+11
1.221345e-01 3.129013e+11
1.245827e-01 3.064299e+11
1.270800e-01 3.001706e+11
1.296273e-01 2.940732e+11
1.322256e-01 2.879718e+11
1.348761e-01 2.821057e+11
1.375797e-01 2.763364e+11
1.403374e-01 2.706542e+11
1.431505e-01 2.650880e+11
1.460199e-01 2.596606e+11
1.489469e-01 2.543462e+11
1.519325e-01 2.491398e+11
1.549780e-01 2.439763e+11
1.580845e-01 2.389696e+11
1.612533e-01 2.340808e+11
1.644856e-01 2.293308e+11
1.677827e-01 2.246566e+11
1.711459e-01 2.201287e+11
1.745765e-01 2.156343e+11
1.780759e-01 2.112653e+11
1.816454e-01 2.069416e+11
1.852865e-01 2.027501e+11
1.890005e-01 1.985904e+11
1.927890e-01 1.944827e+11
1.966535e-01 1.905907e+11
2.005954e-01 1.866438e+11
2.046163e-01 1.827865e+11
2.087178e-01 1.789890e+11
2.129015e-01 1.752720e+11
2.171691e-01 1.715737e+11
2.215223e-01 1.680556e+11
2.259627e-01 1.645688e+11
2.304921e-01 1.611269e+11
2.351123e-01 1.578396e+11
2.398251e-01 1.546714e+11
2.446324e-01 1.513609e+11
2.495360e-01 1.483054e+11
2.545379e-01 1.452534e+11
2.596401e-01 1.422516e+11
2.648446e-01 1.393350e+11
2.701534e-01 1.364199e+11
2.755686e-01 1.336088e+11
2.810923e-01 1.308178e+11
2.867268e-01 1.281427e+11
2.924742e-01 1.255405e+11
2.983368e-01 1.229753e+11
3.043170e-01 1.204785e+11
3.104170e-01 1.180364e+11
3.166393e-01 1.156183e+11
3.229863e-01 1.131909e+11
3.294605e-01 1.108573e+11
3.360645e-01 1.085899e+11
3.428009e-01 1.063777e+11
3.496723e-01 1.042417e+11
3.566815e-01 1.021123e+11
3.638311e-01 1.000521e+11
3.711241e-01 9.797036e+10
3.785633e-01 9.589932e+10
3.861515e-01 9.387212e+10
3.938919e-01 9.191441e+10
4.017874e-01 9.000811e+10
4.098412e-01 8.808557e+10
4.180565e-01 8.623677e+10
4.264364e-01 8.440636e+10
4.349843e-01 8.262385e+10
4.437035e-01 8.086536e+10
4.525975e-01 7.915729e+10
4.616698e-01 7.749060e+10
4.709239e-01 7.587846e+10
4.803635e-01 7.430036e+10
4.899924e-01 7.277822e+10
4.998143e-01 7.125642e+10
5.098330e-01 6.973822e+10
5.200526e-01 6.824221e+10
5.304770e-01 6.678390e+10
5.411103e-01 6.538030e+10
5.519569e-01 6.404279e+10
5.630208e-01 6.273631e+10
5.743065e-01 6.142929e+10
5.858184e-01 6.015392e+10
5.975611e-01 5.893170e+10
6.095392e-01 5.768842e+10
6.217573e-01 5.646911e+10
6.342204e-01 5.525688e+10
6.469333e-01 5.406997e+10
6.599011e-01 5.292108e+10
6.731287e-01 5.181856e+10
6.866215e-01 5.072839e+10
7.003848e-01 4.968297e+10
7.144240e-01 4.861920e+10
7.287445e-01 4.761299e+10
7.433522e-01 4.658258e+10
7.582526e-01 4.559898e+10
7.734517e-01 4.461486e+10
7.889555e-01 4.366037e+10
8.047701e-01 4.273799e+10
8.209016e-01 4.183275e+10
8.373565e-01 4.095639e+10
8.541413e-01 4.008397e+10
8.712625e-01 3.924285e+10
8.887268e-01 3.839803e+10
9.065413e-01 3.756523e+10
9.247129e-01 3.677632e+10
9.432487e-01 3.598725e+10
9.621560e-01 3.520526e+10
9.814423e-01 3.445204e+10
1.001115e+00 3.369237e+10
1.021183e+00 3.298135e+10
1.041652e+00 3.226860e+10
1.062532e+00 3.157527e+10
1.083830e+00 3.088964e+10
1.105556e+00 3.021301e+10
1.127716e+00 2.956867e+10
1.150321e+00 2.893928e+10
1.173379e+00 2.832124e+10
1.196900e+00 2.770613e+10
1.220892e+00 2.709904e+10
1.245364e+00 2.651285e+10
1.270327e+00 2.592802e+10
1.295791e+00 2.537016e+10
1.321765e+00 2.482110e+10
1.348260e+00 2.430149e+10
1.375286e+00 2.375507e+10
1.402853e+00 2.322915e+10
1.430973e+00 2.272227e+10
1.459657e+00 2.222822e+10
1.488916e+00 2.174606e+10
1.518761e+00 2.126399e+10
1.549204e+00 2.079165e+10
1.580258e+00 2.034606e+10
1.611934e+00 1.989791e+10
1.644245e+00 1.946251e+10
1.677204e+00 1.904818e+10
1.710823e+00 1.862621e+10
1.745117e+00 1.821876e+10
1.780097e+00 1.781120e+10
1.815779e+00 1.740888e+10
1.852176e+00 1.702437e+10
1.889303e+00 1.663528e+10
1.927174e+00 1.626499e+10
1.965804e+00 1.589670e+10
2.005209e+00 1.553684e+10
2.045403e+00 1.519511e+10
2.086403e+00 1.485380e+10
2.128224e+00 1.451835e+10
2.170885e+00 1.418967e+10
2.214400e+00 1.386253e+10
2.258787e+00 1.355038e+10
2.304064e+00 1.324448e+10
2.350249e+00 1.293965e+10
2.397360e+00 1.264421e+10
2.445415e+00 1.235654e+10
2.494433e+00 1.208145e+10
2.544434e+00 1.180274e+10
2.595437e+00 1.153927e+10
2.647462e+00 1.127779e+10
2.700530e+00 1.102633e+10
2.754662e+00 1.076730e+10
2.809879e+00 1.051855e+10
2.866203e+00 1.026991e+10
2.923656e+00 1.002277e+10
2.982260e+00 9.785095e+09
3.042039e+00 9.555228e+09
3.103017e+00 9.327734e+09
3.165216e+00 9.103819e+09
3.228663e+00 8.887289e+09
3.293381e+00 8.676733e+09
3.359397e+00 8.470872e+09
3.426736e+00 8.269533e+09
3.495424e+00 8.072170e+09
3.565490e+00 7.878854e+09
3.636960e+00 7.690042e+09
3.709862e+00 7.504837e+09
3.784226e+00 7.323460e+09
3.860081e+00 7.144431e+09
3.937456e+00 6.968261e+09
4.016382e+00 6.797429e+09
4.096890e+00 6.632411e+09
4.179012e+00 6.470426e+09
4.262780e+00 6.307482e+09
4.348227e+00 6.150459e+09
4.435387e+00 5.994847e+09
4.524294e+00 5.844123e+09
4.614983e+00 5.695108e+09
4.707490e+00 5.552139e+09
4.801851e+00 5.414108e+09
4.898104e+00 5.275480e+09
4.996286e+00 5.139420e+09
5.096436e+00 5.009480e+09
5.198594e+00 4.884298e+09
5.302799e+00 4.758931e+09
5.409093e+00 4.637135e+09
5.517518e+00 4.516355e+09
5.628116e+00 4.399389e+09
5.740932e+00 4.282948e+09
5.856008e+00 4.168753e+09
5.973391e+00 4.057348e+09
6.093127e+00 3.948673e+09
6.215264e+00 3.840661e+09
6.339848e+00 3.739562e+09
6.466930e+00 3.637492e+09
6.596559e+00 3.536159e+09
6.728787e+00 3.439515e+09
6.863665e+00 3.346956e+09
7.001246e+00 3.253902e+09
7.141586e+00 3.162377e+09
7.284738e+00 3.074884e+09
7.430760e+00 2.988491e+09
7.579709e+00 2.906477e+09
7.731644e+00 2.823317e+09
7.886624e+00 2.741826e+09
8.044711e+00 2.665637e+09
8.205967e+00 2.588105e+09
8.370455e+00 2.512629e+09
8.538240e+00 2.439258e+09
8.709388e+00 2.367744e+09
8.883967e+00 2.298761e+09
9.062045e+00 2.230336e+09
9.243693e+00 2.164278e+09
9.428983e+00 2.099498e+09
9.617986e+00 2.035073e+09
9.810778e+00 1.973091e+09
1.000743e+01 1.912541e+09
1.020803e+01 1.852540e+09
1.041265e+01 1.794871e+09
1.062137e+01 1.737424e+09
1.083428e+01 1.682960e+09
1.105145e+01 1.629399e+09
1.127297e+01 1.578099e+09
1.149894e+01 1.526452e+09
1.172944e+01 1.477490e+09
1.196455e+01 1.429226e+09
1.220438e+01 1.382028e+09
1.244902e+01 1.335990e+09
1.269856e+01 1.291072e+09
1.295310e+01 1.247427e+09
1.321274e+01 1.204288e+09
1.347759e+01 1.162105e+09
1.374775e+01 1.121863e+09
1.402332e+01 1.082788e+09
1.430442e+01 1.043995e+09
1.459115e+01 1.006039e+09
1.488362e+01 9.684876e+08
1.518197e+01 9.340415e+08
1.548629e+01 9.004884e+08
1.579671e+01 8.672992e+08
1.611335e+01 8.350252e+08
1.643634e+01 8.027589e+08
1.676581e+01 7.716788e+08
1.710188e+01 7.416770e+08
1.744468e+01 7.121312e+08
1.779436e+01 6.844449e+08
1.815105e+01 6.570859e+08
1.851488e+01 6.302977e+08
1.888601e+01 6.048894e+08
1.926458e+01 5.805046e+08
1.965074e+01 5.570365e+08
2.004464e+01 5.341861e+08
2.044643e+01 5.116180e+08
2.085628e+01 4.905847e+08
2.127434e+01 4.694858e+08
2.170078e+01 4.495418e+08
2.213577e+01 4.298488e+08
2.257948e+01 4.112438e+08
2.303209e+01 3.934240e+08
2.349376e+01 3.761383e+08
2.396469e+01 3.591171e+08
2.444506e+01 3.428393e+08
2.493506e+01 3.274466e+08
2.543488e+01 3.124878e+08
2.594472e+01 2.981541e+08
2.646478e+01 2.841906e+08
2.699527e+01 2.706315e+08
2.753639e+01 2.575053e+08
2.808835e+01 2.444423e+08
2.865138e+01 2.325040e+08
2.922570e+01 2.208814e+08
2.981152e+01 2.099175e+08
3.040909e+01 1.991241e+08
3.101864e+01 1.888542e+08
3.164041e+01 1.786395e+08
3.227464e+01 1.689246e+08
3.292158e+01 1.598217e+08
3.358149e+01 1.511143e+08
3.425463e+01 1.427328e+08
3.494126e+01 1.348635e+08
3.564165e+01 1.275192e+08
3.635609e+01 1.204141e+08
3.708484e+01 1.136132e+08
3.782820e+01 1.070428e+08
3.858647e+01 1.008049e+08
3.935993e+01 9.481957e+07
4.014890e+01 8.894681e+07
4.095368e+01 8.351928e+07
4.177459e+01 7.839214e+07
4.261196e+01 7.329396e+07
4.346611e+01 6.860266e+07
4.433739e+01 6.419297e+07
4.522613e+01 6.000561e+07
4.613268e+01 5.601495e+07
4.705741e+01 5.225632e+07
4.800067e+01 4.871430e+07
4.896284e+01 4.537525e+07
4.994430e+01 4.217440e+07
5.094543e+01 3.915822e+07
5.196662e+01 3.631624e+07
5.300829e+01 3.368295e+07
5.407084e+01 3.119314e+07
5.515468e+01 2.882461e+07
5.626026e+01 2.663995e+07
5.738799e+01 2.463040e+07
5.853833e+01 2.271678e+07
5.971172e+01 2.090989e+07
6.090864e+01 1.924203e+07
6.212955e+01 1.769680e+07
6.337493e+01 1.622903e+07
6.464528e+01 1.489065e+07
6.594109e+01 1.367812e+07
6.726287e+01 1.250943e+07
6.861115e+01 1.145632e+07
6.998645e+01 1.051410e+07
7.138933e+01 9.621489e+06
7.282032e+01 8.799161e+06
7.428000e+01 8.070945e+06
7.576894e+01 7.375169e+06
7.728772e+01 6.743198e+06
7.883694e+01 6.160706e+06
8.041722e+01 5.639056e+06
8.202918e+01 5.150959e+06
8.367345e+01 4.708965e+06
8.535068e+01 4.303159e+06
8.706153e+01 3.943204e+06
8.880667e+01 3.612678e+06
9.058679e+01 3.305794e+06
9.240260e+01 3.025789e+06
9.425480e+01 2.761892e+06
9.614413e+01 2.528009e+06
9.807133e+01 2.316566e+06
1.000372e+02 2.112442e+06
1.020424e+02 1.934729e+06
1.040878e+02 1.770904e+06
1.061743e+02 1.615933e+06
1.083025e+02 1.473955e+06
1.104734e+02 1.346341e+06
1.126879e+02 1.229949e+06
1.149467e+02 1.123294e+06
1.172508e+02 1.022440e+06
1.196011e+02 9.322405e+05
1.219985e+02 8.524820e+05
1.244439e+02 7.730042e+05
1.269384e+02 7.080630e+05
1.294828e+02 6.447902e+05
1.320783e+02 5.884074e+05
1.347258e+02 5.351218e+05
1.374264e+02 4.895129e+05
1.401811e+02 4.460012e+05
1.429910e+02 4.059594e+05
1.458573e+02 3.686284e+05
1.487810e+02 3.357672e+05
1.517633e+02 3.052282e+05
1.548053e+02 2.778160e+05
1.579084e+02 2.527638e+05
1.610737e+02 2.305781e+05
1.643024e+02 2.091252e+05
1.675958e+02 1.904973e+05
1.709552e+02 1.738637e+05
1.743820e+02 1.589532e+05
1.778775e+02 1.449131e+05
1.814430e+02 1.319211e+05
1.850801e+02 1.201635e+05
1.887900e+02 1.096260e+05
1.925743e+02 9.986300e+04
1.964344e+02 9.098102e+04
2.003719e+02 8.289951e+04
2.043883e+02 7.548433e+04
2.084853e+02 6.873571e+04
2.126644e+02 6.252746e+04
2.169272e+02 5.704677e+04
2.212755e+02 5.206344e+04
2.257109e+02 4.768183e+04
2.302353e+02 4.353596e+04
2.348503e+02 3.967660e+04
2.395579e+02 3.626891e+04
2.443598e+02 3.309635e+04
2.492580e+02 3.015132e+04
2.542544e+02 2.748381e+04
2.593509e+02 2.511293e+04
2.645495e+02 2.293822e+04
2.698524e+02 2.095431e+04
2.752616e+02 1.912095e+04
2.807792e+02 1.748630e+04
2.864074e+02 1.597990e+04
2.921484e+02 1.460056e+04
2.980045e+02 1.330130e+04
3.039780e+02 1.212409e+04
3.100712e+02 1.109117e+04
3.162865e+02 1.011282e+04
3.226265e+02 9.216745e+03
3.290935e+02 8.426363e+03
3.356901e+02 7.713369e+03
3.424190e+02 7.065412e+03
3.492828e+02 6.453240e+03
3.562841e+02 5.894109e+03
3.634258e+02 5.368603e+03
3.707107e+02 4.888231e+03
3.781415e+02 4.460056e+03
3.857213e+02 4.069283e+03
3.934531e+02 3.714657e+03
4.013398e+02 3.391332e+03
4.093847e+02 3.094449e+03
4.175907e+02 2.822219e+03
4.259613e+02 2.571835e+03
4.344997e+02 2.346172e+03
4.432092e+02 2.139943e+03
4.520933e+02 1.951893e+03
4.611555e+02 1.781353e+03
4.703993e+02 1.622627e+03
4.798284e+02 1.479645e+03
4.894465e+02 1.349262e+03
4.992574e+02 1.231205e+03
5.092650e+02 1.124116e+03
5.194732e+02 1.025023e+03
5.298860e+02 9.332679e+02
5.405075e+02 8.507276e+02
5.513420e+02 7.764358e+02
5.623936e+02 7.074121e+02
5.736667e+02 6.454280e+02
5.851658e+02 5.897865e+02
5.968954e+02 5.383972e+02
6.088601e+02 4.914638e+02
6.210647e+02 4.488717e+02
6.335139e+02 4.094222e+02
6.462126e+02 3.732157e+02
6.591659e+02 3.398932e+02
6.723788e+02 3.095523e+02
6.858566e+02 2.821808e+02
6.996046e+02 2.578072e+02
7.136281e+02 2.353935e+02
7.279327e+02 2.144668e+02
7.425240e+02 1.953517e+02
7.574079e+02 1.780829e+02
7.725901e+02 1.623090e+02
7.880766e+02 1.482245e+02
8.038735e+02 1.352686e+02
8.199871e+02 1.234634e+02
8.364237e+02 1.126886e+02
8.531897e+02 1.028542e+02
8.702918e+02 9.381797e+01
8.877368e+02 8.543108e+01
9.055314e+02 7.790439e+01
9.236827e+02 7.113181e+01
9.421978e+02 6.494813e+01
9.610841e+02 5.930211e+01
9.803490e+02 5.414701e+01
1.000000e+03 4.943899e+01
