# Energy(MeV) Phi16 Phi84
5.000000e-01 3.107446e+12 3.948487e+12
5.076744e-01 3.038231e+12 3.859964e+12
5.154667e-01 2.970521e+12 3.773378e+12
5.233785e-01 2.904285e+12 3.688688e+12
5.314118e-01 2.839491e+12 3.605979e+12
5.395683e-01 2.776107e+12 3.525300e+12
5.478501e-01 2.714103e+12 3.446380e+12
5.562590e-01 2.653375e+12 3.369097e+12
5.647969e-01 2.593741e+12 3.293399e+12
5.734659e-01 2.535414e+12 3.219150e+12
5.822680e-01 2.478366e+12 3.146484e+12
5.912051e-01 2.422569e+12 3.075415e+12
6.002795e-01 2.367995e+12 3.005875e+12
6.094931e-01 2.314619e+12 2.937861e+12
6.188481e-01 2.262434e+12 2.871344e+12
6.283467e-01 2.211445e+12 2.806292e+12
6.379911e-01 2.161574e+12 2.742673e+12
6.477836e-01 2.112874e+12 2.680491e+12
6.577263e-01 2.065484e+12 2.619755e+12
6.678217e-01 2.019127e+12 2.560349e+12
6.780720e-01 1.973760e+12 2.502238e+12
6.884796e-01 1.929085e+12 2.445408e+12
6.990470e-01 1.885391e+12 2.389831e+12
7.097766e-01 1.842658e+12 2.335461e+12
7.206709e-01 1.800864e+12 2.282184e+12
7.317324e-01 1.759990e+12 2.230087e+12
7.429636e-01 1.719991e+12 2.179127e+12
7.543673e-01 1.680673e+12 2.129507e+12
7.659460e-01 1.642225e+12 2.081021e+12
7.777024e-01 1.604629e+12 2.033446e+12
7.896392e-01 1.567866e+12 1.986923e+12
8.017593e-01 1.531918e+12 1.941400e+12
8.140654e-01 1.496766e+12 1.896886e+12
8.265604e-01 1.462435e+12 1.853360e+12
8.392472e-01 1.428976e+12 1.810799e+12
8.521287e-01 1.396488e+12 1.769234e+12
8.652079e-01 1.364797e+12 1.729023e+12
8.784878e-01 1.333816e+12 1.689351e+12
8.919716e-01 1.303434e+12 1.650472e+12
9.056624e-01 1.273518e+12 1.612456e+12
9.195633e-01 1.244264e+12 1.575286e+12
9.336776e-01 1.215657e+12 1.539120e+12
9.480084e-01 1.187684e+12 1.503824e+12
9.625593e-01 1.160354e+12 1.469184e+12
9.773335e-01 1.133646e+12 1.435274e+12
9.923345e-01 1.107369e+12 1.402118e+12
1.007566e+00 1.082049e+12 1.369698e+12
1.023031e+00 1.057275e+12 1.338000e+12
1.038733e+00 1.032914e+12 1.307005e+12
1.054676e+00 1.009062e+12 1.276659e+12
1.070865e+00 9.857289e+11 1.246989e+12
1.087301e+00 9.629140e+11 1.217981e+12
1.103990e+00 9.406124e+11 1.189622e+12
1.120935e+00 9.189407e+11 1.161895e+12
1.138140e+00 8.977476e+11 1.134789e+12
1.155609e+00 8.769993e+11 1.108289e+12
1.173346e+00 8.566419e+11 1.082381e+12
1.191356e+00 8.367370e+11 1.057054e+12
1.209642e+00 8.172748e+11 1.032330e+12
1.228209e+00 7.982457e+11 1.008221e+12
1.247060e+00 7.796404e+11 9.846505e+11
1.266201e+00 7.614496e+11 9.615070e+11
1.285636e+00 7.436643e+11 9.388702e+11
1.305369e+00 7.262758e+11 9.167422e+11
1.325405e+00 7.092755e+11 8.952200e+11
1.345748e+00 6.926550e+11 8.743125e+11
1.366404e+00 6.764059e+11 8.538704e+11
1.387377e+00 6.605203e+11 8.338837e+11
1.408672e+00 6.449902e+11 8.143228e+11
1.430293e+00 6.298080e+11 7.951416e+11
1.452247e+00 6.149660e+11 7.763910e+11
1.474537e+00 6.004570e+11 7.580616e+11
1.497169e+00 5.862736e+11 7.401443e+11
1.520149e+00 5.724087e+11 7.226300e+11
1.543482e+00 5.588556e+11 7.055100e+11
1.567172e+00 5.455756e+11 6.887586e+11
1.591227e+00 5.324849e+11 6.723733e+11
1.615650e+00 5.196966e+11 6.563584e+11
1.640449e+00 5.072001e+11 6.407059e+11
1.665628e+00 4.949889e+11 6.254077e+11
1.691193e+00 4.830567e+11 6.104561e+11
1.717151e+00 4.713974e+11 5.958436e+11
1.743508e+00 4.600714e+11 5.814572e+11
1.770268e+00 4.490587e+11 5.674699e+11
1.797440e+00 4.383120e+11 5.537948e+11
1.825029e+00 4.278157e+11 5.404210e+11
1.853041e+00 4.175569e+11 5.273525e+11
1.881483e+00 4.075305e+11 5.145825e+11
1.910362e+00 3.977313e+11 5.021046e+11
1.939683e+00 3.881545e+11 4.899123e+11
1.969455e+00 3.787953e+11 4.780117e+11
1.999684e+00 3.696487e+11 4.664755e+11
2.030377e+00 3.607103e+11 4.552017e+11
2.061541e+00 3.519755e+11 4.441821e+11
2.093184e+00 3.434398e+11 4.334093e+11
2.125312e+00 3.350989e+11 4.228824e+11
2.157933e+00 3.268988e+11 4.125960e+11
2.191055e+00 3.188845e+11 4.025408e+11
2.224685e+00 3.110546e+11 3.926371e+11
2.258831e+00 3.034052e+11 3.829433e+11
2.293502e+00 2.959322e+11 3.734710e+11
2.328704e+00 2.886317e+11 3.642106e+11
2.364447e+00 2.815000e+11 3.551718e+11
2.400739e+00 2.745333e+11 3.463460e+11
2.437588e+00 2.677325e+11 3.376752e+11
2.475002e+00 2.611231e+11 3.292054e+11
2.512990e+00 2.546826e+11 3.209563e+11
2.551562e+00 2.483921e+11 3.129008e+11
2.590725e+00 2.422332e+11 3.050345e+11
2.630490e+00 2.361551e+11 2.973532e+11
2.670865e+00 2.302210e+11 2.898529e+11
2.711860e+00 2.244645e+11 2.825293e+11
2.753484e+00 2.188422e+11 2.753786e+11
2.795747e+00 2.133555e+11 2.684170e+11
2.838658e+00 2.080038e+11 2.616585e+11
2.882229e+00 2.027771e+11 2.550591e+11
2.926468e+00 1.976727e+11 2.486151e+11
2.971386e+00 1.926733e+11 2.423230e+11
3.016993e+00 1.877752e+11 2.361629e+11
3.063300e+00 1.830240e+11 2.301251e+11
3.110319e+00 1.783195e+11 2.242287e+11
3.158058e+00 1.737387e+11 2.184726e+11
3.206531e+00 1.692756e+11 2.128788e+11
3.255748e+00 1.649263e+11 2.074285e+11
3.305720e+00 1.606895e+11 2.020862e+11
3.356459e+00 1.565836e+11 1.968716e+11
3.407977e+00 1.525802e+11 1.917768e+11
3.460285e+00 1.486719e+11 1.868511e+11
3.513397e+00 1.448565e+11 1.820362e+11
3.567323e+00 1.410946e+11 1.773083e+11
3.622078e+00 1.374137e+11 1.726942e+11
3.677673e+00 1.338335e+11 1.681913e+11
3.734121e+00 1.303283e+11 1.637931e+11
3.791435e+00 1.269209e+11 1.594962e+11
3.849630e+00 1.236104e+11 1.553036e+11
3.908717e+00 1.203796e+11 1.512129e+11
3.968711e+00 1.172267e+11 1.472347e+11
4.029627e+00 1.141528e+11 1.433551e+11
4.091477e+00 1.111553e+11 1.395696e+11
4.154276e+00 1.082304e+11 1.358761e+11
4.218040e+00 1.053763e+11 1.322671e+11
4.282782e+00 1.025916e+11 1.287356e+11
4.348518e+00 9.987459e+10 1.252909e+11
4.415263e+00 9.722378e+10 1.219311e+11
4.483032e+00 9.463767e+10 1.186541e+11
4.551842e+00 9.211477e+10 1.154582e+11
4.621707e+00 8.965366e+10 1.123605e+11
4.692645e+00 8.725293e+10 1.093653e+11
4.764672e+00 8.488422e+10 1.064434e+11
4.837804e+00 8.257158e+10 1.035931e+11
4.912059e+00 8.033937e+10 1.007916e+11
4.987454e+00 7.816401e+10 9.806492e+10
5.064006e+00 7.604265e+10 9.539518e+10
5.141732e+00 7.397406e+10 9.278522e+10
5.220652e+00 7.194525e+10 9.026416e+10
5.300783e+00 6.996382e+10 8.782058e+10
5.382144e+00 6.803531e+10 8.543749e+10
5.464754e+00 6.615272e+10 8.311348e+10
5.548632e+00 6.431419e+10 8.082907e+10
5.633797e+00 6.252228e+10 7.858519e+10
5.720270e+00 6.077592e+10 7.639591e+10
5.808069e+00 5.908681e+10 7.425994e+10
5.897217e+00 5.744820e+10 7.217834e+10
5.987732e+00 5.584109e+10 7.017281e+10
6.079637e+00 5.427294e+10 6.823245e+10
6.172953e+00 5.274489e+10 6.634071e+10
6.267701e+00 5.126076e+10 6.447419e+10
6.363903e+00 4.982149e+10 6.265548e+10
6.461581e+00 4.841765e+10 6.089581e+10
6.560759e+00 4.703632e+10 5.918171e+10
6.661460e+00 4.569080e+10 5.751152e+10
6.763706e+00 4.438025e+10 5.587027e+10
6.867521e+00 4.310440e+10 5.426800e+10
6.972929e+00 4.186351e+10 5.270589e+10
7.079956e+00 4.065892e+10 5.118462e+10
7.188625e+00 3.949185e+10 4.970322e+10
7.298963e+00 3.835520e+10 4.827097e+10
7.410994e+00 3.724826e+10 4.687374e+10
7.524744e+00 3.617032e+10 4.551923e+10
7.640240e+00 3.512068e+10 4.420169e+10
7.757509e+00 3.409866e+10 4.291868e+10
7.876578e+00 3.310361e+10 4.166938e+10
7.997475e+00 3.213549e+10 4.045298e+10
8.120227e+00 3.119364e+10 3.926870e+10
8.244863e+00 3.026406e+10 3.811577e+10
8.371413e+00 2.935423e+10 3.699343e+10
8.499905e+00 2.846913e+10 3.590068e+10
8.630369e+00 2.760813e+10 3.483697e+10
8.762835e+00 2.678758e+10 3.379847e+10
8.897335e+00 2.599969e+10 3.278849e+10
9.033899e+00 2.521660e+10 3.179991e+10
9.172559e+00 2.445460e+10 3.084656e+10
9.313347e+00 2.371808e+10 2.992103e+10
9.456297e+00 2.300157e+10 2.902055e+10
9.601440e+00 2.230459e+10 2.814450e+10
9.748811e+00 2.162664e+10 2.728569e+10
9.898445e+00 2.096726e+10 2.644162e+10
1.005037e+01 2.032600e+10 2.562894e+10
1.020464e+01 1.970240e+10 2.484573e+10
1.036127e+01 1.909646e+10 2.408390e+10
1.052030e+01 1.850317e+10 2.334308e+10
1.068177e+01 1.792649e+10 2.262277e+10
1.084573e+01 1.736599e+10 2.192244e+10
1.101220e+01 1.682131e+10 2.124158e+10
1.118122e+01 1.629203e+10 2.057968e+10
1.135284e+01 1.577774e+10 1.993630e+10
1.152709e+01 1.527805e+10 1.931002e+10
1.170402e+01 1.479049e+10 1.870001e+10
1.188367e+01 1.431520e+10 1.810258e+10
1.206607e+01 1.385362e+10 1.752119e+10
1.225127e+01 1.340558e+10 1.695655e+10
1.243931e+01 1.297490e+10 1.640822e+10
1.263024e+01 1.255525e+10 1.587648e+10
1.282410e+01 1.215010e+10 1.536509e+10
1.302094e+01 1.175672e+10 1.486746e+10
1.322079e+01 1.137475e+10 1.438724e+10
1.342372e+01 1.100435e+10 1.391461e+10
1.362976e+01 1.064407e+10 1.345450e+10
1.383896e+01 1.029249e+10 1.300783e+10
1.405137e+01 9.951137e+09 1.257967e+10
1.426704e+01 9.619930e+09 1.216445e+10
1.448602e+01 9.298602e+09 1.175802e+10
1.470837e+01 8.987087e+09 1.136375e+10
1.493413e+01 8.685185e+09 1.098133e+10
1.516335e+01 8.392368e+09 1.061043e+10
1.539609e+01 8.108393e+09 1.025074e+10
1.563240e+01 7.832532e+09 9.900758e+09
1.587234e+01 7.564570e+09 9.564950e+09
1.611596e+01 7.303523e+09 9.239611e+09
1.636332e+01 7.049086e+09 8.922769e+09
1.661448e+01 6.802716e+09 8.608635e+09
1.686950e+01 6.565789e+09 8.304394e+09
1.712842e+01 6.339157e+09 8.016046e+09
1.739133e+01 6.119508e+09 7.738876e+09
1.765826e+01 5.906943e+09 7.469879e+09
1.792930e+01 5.698196e+09 7.206098e+09
1.820449e+01 5.495909e+09 6.949176e+09
1.848391e+01 5.300036e+09 6.699791e+09
1.876762e+01 5.110396e+09 6.461369e+09
1.905568e+01 4.926814e+09 6.230879e+09
1.934816e+01 4.748527e+09 6.004771e+09
1.964514e+01 4.576679e+09 5.786396e+09
1.994667e+01 4.410180e+09 5.576383e+09
2.025283e+01 4.248970e+09 5.373179e+09
2.056368e+01 4.093232e+09 5.176894e+09
2.087931e+01 3.942653e+09 4.988290e+09
2.119979e+01 3.797745e+09 4.805819e+09
2.152518e+01 3.657588e+09 4.628099e+09
2.185557e+01 3.522046e+09 4.455809e+09
2.219102e+01 3.390983e+09 4.291928e+09
2.253163e+01 3.264271e+09 4.134164e+09
2.287747e+01 3.141230e+09 3.981175e+09
2.322861e+01 3.022194e+09 3.832034e+09
2.358514e+01 2.906280e+09 3.686686e+09
2.394715e+01 2.794331e+09 3.545941e+09
2.431471e+01 2.686228e+09 3.409888e+09
2.468791e+01 2.581856e+09 3.279765e+09
2.506685e+01 2.481112e+09 3.154584e+09
2.545159e+01 2.384766e+09 3.032524e+09
2.584225e+01 2.292155e+09 2.913922e+09
2.623890e+01 2.202793e+09 2.799377e+09
2.664163e+01 2.116721e+09 2.689849e+09
2.705055e+01 2.033756e+09 2.584412e+09
2.746575e+01 1.953429e+09 2.481152e+09
2.788732e+01 1.876063e+09 2.382867e+09
2.831535e+01 1.801067e+09 2.288255e+09
2.874996e+01 1.728652e+09 2.197332e+09
2.919124e+01 1.659365e+09 2.110565e+09
2.963930e+01 1.592175e+09 2.026851e+09
3.009423e+01 1.527311e+09 1.945921e+09
3.055614e+01 1.464879e+09 1.866142e+09
3.102514e+01 1.405181e+09 1.788653e+09
3.150134e+01 1.347695e+09 1.715106e+09
3.198485e+01 1.292304e+09 1.644388e+09
3.247578e+01 1.238616e+09 1.576159e+09
3.297425e+01 1.186693e+09 1.509668e+09
3.348037e+01 1.136982e+09 1.446217e+09
3.399425e+01 1.089197e+09 1.385375e+09
3.451603e+01 1.043002e+09 1.326752e+09
3.504581e+01 9.981441e+08 1.270377e+09
3.558372e+01 9.553655e+08 1.216192e+09
3.612989e+01 9.142442e+08 1.164452e+09
3.668444e+01 8.745818e+08 1.114490e+09
3.724751e+01 8.364627e+08 1.066417e+09
3.781922e+01 8.000295e+08 1.020004e+09
3.839970e+01 7.648763e+08 9.752713e+08
3.898909e+01 7.307526e+08 9.323199e+08
3.958753e+01 6.986733e+08 8.908505e+08
4.019515e+01 6.676635e+08 8.510949e+08
4.081210e+01 6.374150e+08 8.128936e+08
4.143852e+01 6.086863e+08 7.763313e+08
4.207456e+01 5.811268e+08 7.413553e+08
4.272035e+01 5.547933e+08 7.075127e+08
4.337606e+01 5.297295e+08 6.754475e+08
4.404184e+01 5.057124e+08 6.448015e+08
4.471783e+01 4.822906e+08 6.153407e+08
4.540420e+01 4.598388e+08 5.869078e+08
4.610110e+01 4.383217e+08 5.596183e+08
4.680870e+01 4.177053e+08 5.334847e+08
4.752716e+01 3.979822e+08 5.085078e+08
4.825665e+01 3.791321e+08 4.844095e+08
4.899734e+01 3.610020e+08 4.613883e+08
4.974939e+01 3.436136e+08 4.393896e+08
5.051299e+01 3.271145e+08 4.183015e+08
5.128830e+01 3.113420e+08 3.980868e+08
5.207552e+01 2.961763e+08 3.787010e+08
5.287482e+01 2.818034e+08 3.601900e+08
5.368639e+01 2.679483e+08 3.426078e+08
5.451042e+01 2.547014e+08 3.257418e+08
5.534709e+01 2.420458e+08 3.096874e+08
5.619661e+01 2.299536e+08 2.942775e+08
5.705916e+01 2.184028e+08 2.795445e+08
5.793495e+01 2.073547e+08 2.654860e+08
5.882419e+01 1.967649e+08 2.521471e+08
5.972707e+01 1.866759e+08 2.394119e+08
6.064382e+01 1.770510e+08 2.272027e+08
6.157463e+01 1.678713e+08 2.153870e+08
6.251973e+01 1.591188e+08 2.043896e+08
6.347934e+01 1.508453e+08 1.938304e+08
6.445368e+01 1.429664e+08 1.836372e+08
6.544297e+01 1.353695e+08 1.739062e+08
6.644744e+01 1.281358e+08 1.646685e+08
6.746734e+01 1.212955e+08 1.559350e+08
6.850288e+01 1.148392e+08 1.476822e+08
6.955433e+01 1.086916e+08 1.398032e+08
7.062191e+01 1.028355e+08 1.323019e+08
7.170587e+01 9.718794e+07 1.251042e+08
7.280648e+01 9.187841e+07 1.182514e+08
7.392398e+01 8.678462e+07 1.117203e+08
7.505862e+01 8.198089e+07 1.055066e+08
7.621069e+01 7.741644e+07 9.963328e+07
7.738044e+01 7.308708e+07 9.409121e+07
7.856814e+01 6.895445e+07 8.880992e+07
7.977407e+01 6.499140e+07 8.375535e+07
8.099851e+01 6.128367e+07 7.901265e+07
8.224175e+01 5.773307e+07 7.446944e+07
8.350407e+01 5.437531e+07 7.020107e+07
8.478576e+01 5.115521e+07 6.615794e+07
8.608713e+01 4.815722e+07 6.232576e+07
8.740847e+01 4.533413e+07 5.867959e+07
8.875009e+01 4.263518e+07 5.522289e+07
9.011230e+01 4.006671e+07 5.195157e+07
9.149543e+01 3.766893e+07 4.888060e+07
9.289978e+01 3.539614e+07 4.595977e+07
9.432568e+01 3.323176e+07 4.317733e+07
9.577348e+01 3.120529e+07 4.057042e+07
9.724349e+01 2.928447e+07 3.809178e+07
9.873607e+01 2.745623e+07 3.575660e+07
1.002516e+02 2.574741e+07 3.355454e+07
1.017903e+02 2.413543e+07 3.147397e+07
1.033527e+02 2.261367e+07 2.948535e+07
1.049390e+02 2.116990e+07 2.764540e+07
1.065497e+02 1.980776e+07 2.589572e+07
1.081851e+02 1.844651e+07 2.423772e+07
1.098457e+02 1.721676e+07 2.267256e+07
1.115317e+02 1.606994e+07 2.119383e+07
1.132435e+02 1.499711e+07 1.981516e+07
1.149817e+02 1.400370e+07 1.851407e+07
1.167465e+02 1.305590e+07 1.728602e+07
1.185385e+02 1.216192e+07 1.612294e+07
1.203579e+02 1.133975e+07 1.502983e+07
1.222053e+02 1.054384e+07 1.400945e+07
1.240810e+02 9.795258e+06 1.304640e+07
1.259855e+02 9.105726e+06 1.214659e+07
1.279192e+02 8.451803e+06 1.130372e+07
1.298826e+02 7.833512e+06 1.050423e+07
1.318762e+02 7.269649e+06 9.765463e+06
1.339003e+02 6.745839e+06 9.060255e+06
1.359555e+02 6.237355e+06 8.390405e+06
1.380423e+02 5.779230e+06 7.770913e+06
1.401611e+02 5.357567e+06 7.191335e+06
1.423124e+02 4.966151e+06 6.650320e+06
1.444968e+02 4.594664e+06 6.161122e+06
1.467146e+02 4.246678e+06 5.692112e+06
1.489665e+02 3.917393e+06 5.259608e+06
1.512530e+02 3.614377e+06 4.854536e+06
1.535746e+02 3.344019e+06 4.481383e+06
1.559317e+02 3.084622e+06 4.144558e+06
1.583251e+02 2.847605e+06 3.829406e+06
1.607552e+02 2.623578e+06 3.538665e+06
1.632226e+02 2.427482e+06 3.268028e+06
1.657279e+02 2.241785e+06 3.019191e+06
1.682717e+02 2.073087e+06 2.783096e+06
1.708544e+02 1.912770e+06 2.565851e+06
1.734769e+02 1.766553e+06 2.368116e+06
1.761395e+02 1.630040e+06 2.190348e+06
1.788431e+02 1.503219e+06 2.019841e+06
1.815881e+02 1.384054e+06 1.865406e+06
1.843753e+02 1.277019e+06 1.722802e+06
1.872053e+02 1.180310e+06 1.588905e+06
1.900786e+02 1.089425e+06 1.467543e+06
1.929961e+02 1.005024e+06 1.357482e+06
1.959584e+02 9.265694e+05 1.254938e+06
1.989662e+02 8.536096e+05 1.160086e+06
2.020201e+02 7.856910e+05 1.070797e+06
2.051208e+02 7.246653e+05 9.890264e+05
2.082692e+02 6.662264e+05 9.128036e+05
2.114659e+02 6.141540e+05 8.418406e+05
2.147117e+02 5.657759e+05 7.755904e+05
2.180073e+02 5.206843e+05 7.158681e+05
2.213534e+02 4.801100e+05 6.611331e+05
2.247509e+02 4.416268e+05 6.113423e+05
2.282006e+02 4.065592e+05 5.652991e+05
2.317032e+02 3.744097e+05 5.216684e+05
2.352596e+02 3.445331e+05 4.822033e+05
2.388706e+02 3.171493e+05 4.449884e+05
2.425370e+02 2.918927e+05 4.102171e+05
2.462597e+02 2.686049e+05 3.783645e+05
2.500395e+02 2.473261e+05 3.489307e+05
2.538773e+02 2.273043e+05 3.215866e+05
2.577740e+02 2.088787e+05 2.968477e+05
2.617306e+02 1.921132e+05 2.742101e+05
2.657478e+02 1.764083e+05 2.532286e+05
2.698268e+02 1.620335e+05 2.338957e+05
2.739683e+02 1.488904e+05 2.162784e+05
2.781734e+02 1.367196e+05 1.995384e+05
2.824430e+02 1.253981e+05 1.841306e+05
2.867782e+02 1.150882e+05 1.698237e+05
2.911799e+02 1.056506e+05 1.570187e+05
2.956492e+02 9.702769e+04 1.450389e+05
3.001871e+02 8.906305e+04 1.339728e+05
3.047946e+02 8.170127e+04 1.236634e+05
3.094729e+02 7.495180e+04 1.142739e+05
3.142230e+02 6.894485e+04 1.054982e+05
3.190459e+02 6.335265e+04 9.734089e+04
3.239429e+02 5.813655e+04 9.001692e+04
3.289151e+02 5.340681e+04 8.303417e+04
3.339636e+02 4.904636e+04 7.667514e+04
3.390895e+02 4.497752e+04 7.061902e+04
3.442942e+02 4.126943e+04 6.515616e+04
3.495787e+02 3.784314e+04 6.006022e+04
3.549443e+02 3.467852e+04 5.520102e+04
3.603923e+02 3.177554e+04 5.078747e+04
3.659239e+02 2.912599e+04 4.686846e+04
3.715405e+02 2.663249e+04 4.320843e+04
3.772432e+02 2.434912e+04 3.983421e+04
3.830334e+02 2.230441e+04 3.673277e+04
3.889126e+02 2.050128e+04 3.387472e+04
3.948819e+02 1.882878e+04 3.121131e+04
4.009429e+02 1.722142e+04 2.873692e+04
4.070970e+02 1.575339e+04 2.646800e+04
4.133454e+02 1.438824e+04 2.440013e+04
4.196898e+02 1.320868e+04 2.248147e+04
4.261316e+02 1.211866e+04 2.069998e+04
4.326722e+02 1.106413e+04 1.908153e+04
4.393133e+02 1.010177e+04 1.757442e+04
4.460562e+02 9.235681e+03 1.618882e+04
4.529027e+02 8.455094e+03 1.489509e+04
4.598542e+02 7.739346e+03 1.370622e+04
4.669125e+02 7.078076e+03 1.259996e+04
4.740790e+02 6.473166e+03 1.159188e+04
4.813556e+02 5.919120e+03 1.066587e+04
4.887439e+02 5.408621e+03 9.809302e+03
4.962456e+02 4.936907e+03 9.017245e+03
5.038624e+02 4.511650e+03 8.296459e+03
5.115961e+02 4.123295e+03 7.641395e+03
5.194485e+02 3.760049e+03 7.044469e+03
5.274215e+02 3.436441e+03 6.480551e+03
5.355168e+02 3.140853e+03 5.961195e+03
5.437364e+02 2.868406e+03 5.480887e+03
5.520821e+02 2.621436e+03 5.038571e+03
5.605559e+02 2.399396e+03 4.631294e+03
5.691598e+02 2.195986e+03 4.256328e+03
5.778958e+02 2.002427e+03 3.910160e+03
5.867659e+02 1.826773e+03 3.586655e+03
5.957720e+02 1.667784e+03 3.299908e+03
6.049165e+02 1.524014e+03 3.027986e+03
6.142013e+02 1.391084e+03 2.782220e+03
6.236286e+02 1.268293e+03 2.555533e+03
6.332005e+02 1.155018e+03 2.346297e+03
6.429195e+02 1.051679e+03 2.153859e+03
6.527876e+02 9.574449e+02 1.976897e+03
6.628071e+02 8.716961e+02 1.813771e+03
6.729804e+02 7.929592e+02 1.664906e+03
6.833099e+02 7.221902e+02 1.528999e+03
6.937980e+02 6.582491e+02 1.404492e+03
7.044470e+02 6.000889e+02 1.290100e+03
7.152595e+02 5.457548e+02 1.183581e+03
7.262379e+02 4.963572e+02 1.085697e+03
7.373848e+02 4.516435e+02 9.959686e+02
7.487028e+02 4.103891e+02 9.136108e+02
7.601946e+02 3.743071e+02 8.386135e+02
7.718627e+02 3.410788e+02 7.711373e+02
7.837099e+02 3.098470e+02 7.055054e+02
7.957390e+02 2.810220e+02 6.462226e+02
8.079527e+02 2.549203e+02 5.920715e+02
8.203539e+02 2.318056e+02 5.415943e+02
8.329454e+02 2.108479e+02 4.961534e+02
8.457301e+02 1.916502e+02 4.537342e+02
8.587111e+02 1.742321e+02 4.154407e+02
8.718914e+02 1.580100e+02 3.807589e+02
8.852739e+02 1.435287e+02 3.490338e+02
8.988619e+02 1.304541e+02 3.197561e+02
9.126584e+02 1.185466e+02 2.927090e+02
9.266667e+02 1.076984e+02 2.676885e+02
9.408900e+02 9.768278e+01 2.449155e+02
9.553316e+02 8.834764e+01 2.240379e+02
9.699948e+02 7.985044e+01 2.049014e+02
9.848832e+02 7.217970e+01 1.873638e+02
1.000000e+03 6.542102e+01 1.712945e+02
