# Energy(MeV) Phi16 Phi84
5.000000e-02 1.680660e+11 2.563482e+11
5.049814e-02 1.660165e+11 2.527808e+11
5.100123e-02 1.639625e+11 2.493005e+11
5.150934e-02 1.619541e+11 2.459764e+11
5.202252e-02 1.599788e+11 2.426966e+11
5.254080e-02 1.580410e+11 2.394713e+11
5.306425e-02 1.561324e+11 2.362227e+11
5.359291e-02 1.542114e+11 2.330757e+11
5.412684e-02 1.523658e+11 2.299464e+11
5.466609e-02 1.504597e+11 2.268548e+11
5.521071e-02 1.485451e+11 2.237365e+11
5.576076e-02 1.466930e+11 2.206601e+11
5.631629e-02 1.448713e+11 2.176255e+11
5.687735e-02 1.430722e+11 2.147078e+11
5.744400e-02 1.412953e+11 2.118471e+11
5.801630e-02 1.395405e+11 2.090527e+11
5.859430e-02 1.378075e+11 2.062796e+11
5.917806e-02 1.361476e+11 2.035334e+11
5.976763e-02 1.345758e+11 2.008294e+11
6.036308e-02 1.330221e+11 1.982429e+11
6.096446e-02 1.314863e+11 1.956258e+11
6.157183e-02 1.299680e+11 1.929432e+11
6.218525e-02 1.283421e+11 1.903387e+11
6.280478e-02 1.266789e+11 1.878037e+11
6.343049e-02 1.250455e+11 1.852965e+11
6.406243e-02 1.234111e+11 1.827673e+11
6.470066e-02 1.218081e+11 1.802489e+11
6.534526e-02 1.204463e+11 1.777650e+11
6.599627e-02 1.190142e+11 1.752809e+11
6.665377e-02 1.175014e+11 1.728520e+11
6.731782e-02 1.160779e+11 1.706070e+11
6.798849e-02 1.146929e+11 1.683178e+11
6.866584e-02 1.133283e+11 1.659304e+11
6.934994e-02 1.119159e+11 1.635767e+11
7.004085e-02 1.105464e+11 1.612785e+11
7.073865e-02 1.092314e+11 1.590739e+11
7.144339e-02 1.079319e+11 1.569450e+11
7.215516e-02 1.066477e+11 1.548445e+11
7.287402e-02 1.053787e+11 1.527721e+11
7.360005e-02 1.040373e+11 1.507274e+11
7.433330e-02 1.027070e+11 1.487041e+11
7.507386e-02 1.014021e+11 1.467066e+11
7.582180e-02 1.001223e+11 1.447359e+11
7.657719e-02 9.885866e+10 1.427916e+11
7.734011e-02 9.764468e+10 1.408828e+11
7.811062e-02 9.651090e+10 1.390180e+11
7.888881e-02 9.539022e+10 1.371555e+11
7.967476e-02 9.427490e+10 1.352796e+11
8.046854e-02 9.318755e+10 1.334654e+11
8.127022e-02 9.210302e+10 1.316625e+11
8.207989e-02 9.099386e+10 1.299325e+11
8.289763e-02 8.988664e+10 1.282077e+11
8.372351e-02 8.878290e+10 1.264244e+11
8.455763e-02 8.764917e+10 1.246280e+11
8.540005e-02 8.653551e+10 1.229227e+11
8.625086e-02 8.544012e+10 1.213364e+11
8.711015e-02 8.435856e+10 1.197366e+11
8.797801e-02 8.329066e+10 1.179555e+11
8.885451e-02 8.223625e+10 1.163395e+11
8.973974e-02 8.120295e+10 1.148469e+11
9.063379e-02 8.025479e+10 1.131551e+11
9.153674e-02 7.925936e+10 1.115588e+11
9.244870e-02 7.837150e+10 1.100518e+11
9.336974e-02 7.745100e+10 1.085158e+11
9.429995e-02 7.654927e+10 1.071075e+11
9.523943e-02 7.556508e+10 1.057318e+11
9.618827e-02 7.461614e+10 1.043721e+11
9.714657e-02 7.371681e+10 1.029888e+11
9.811441e-02 7.280791e+10 1.015908e+11
9.909190e-02 7.186215e+10 1.001879e+11
1.000791e-01 7.093093e+10 9.878777e+10
1.010762e-01 7.004502e+10 9.743524e+10
1.020832e-01 6.917815e+10 9.613265e+10
1.031002e-01 6.831218e+10 9.485037e+10
1.041274e-01 6.746817e+10 9.354851e+10
1.051647e-01 6.664957e+10 9.224478e+10
1.062125e-01 6.582254e+10 9.097883e+10
1.072706e-01 6.501550e+10 8.973022e+10
1.083393e-01 6.422905e+10 8.851233e+10
1.094187e-01 6.345548e+10 8.732912e+10
1.105088e-01 6.267036e+10 8.625805e+10
1.116098e-01 6.186814e+10 8.519857e+10
1.127217e-01 6.107336e+10 8.405047e+10
1.138447e-01 6.029071e+10 8.290908e+10
1.149789e-01 5.952900e+10 8.178437e+10
1.161244e-01 5.878407e+10 8.074124e+10
1.172813e-01 5.804836e+10 7.969359e+10
1.184498e-01 5.732177e+10 7.865982e+10
1.196298e-01 5.660416e+10 7.763538e+10
1.208217e-01 5.589545e+10 7.658493e+10
1.220254e-01 5.517503e+10 7.555664e+10
1.232411e-01 5.444799e+10 7.454653e+10
1.244689e-01 5.373240e+10 7.356952e+10
1.257089e-01 5.304914e+10 7.262362e+10
1.269613e-01 5.242457e+10 7.168675e+10
1.282262e-01 5.181154e+10 7.070957e+10
1.295037e-01 5.120555e+10 6.972468e+10
1.307939e-01 5.059974e+10 6.878675e+10
1.320970e-01 5.000016e+10 6.794323e+10
1.334130e-01 4.935223e+10 6.710997e+10
1.347422e-01 4.870795e+10 6.628687e+10
1.360846e-01 4.809429e+10 6.545992e+10
1.374403e-01 4.749886e+10 6.461148e+10
1.388096e-01 4.692320e+10 6.376976e+10
1.401925e-01 4.635958e+10 6.289741e+10
1.415892e-01 4.580716e+10 6.202181e+10
1.429998e-01 4.527131e+10 6.115364e+10
1.444245e-01 4.473666e+10 6.029839e+10
1.458634e-01 4.421041e+10 5.944765e+10
1.473166e-01 4.367611e+10 5.861961e+10
1.487842e-01 4.311618e+10 5.780275e+10
1.502665e-01 4.258082e+10 5.699626e+10
1.517636e-01 4.202530e+10 5.621054e+10
1.532756e-01 4.147253e+10 5.542008e+10
1.548026e-01 4.092700e+10 5.462533e+10
1.563448e-01 4.039350e+10 5.388265e+10
1.579025e-01 3.986994e+10 5.313687e+10
1.594756e-01 3.939803e+10 5.239172e+10
1.610644e-01 3.893403e+10 5.165689e+10
1.626690e-01 3.845859e+10 5.096062e+10
1.642897e-01 3.797150e+10 5.026779e+10
1.659264e-01 3.747657e+10 4.959910e+10
1.675795e-01 3.701840e+10 4.893118e+10
1.692491e-01 3.655412e+10 4.826320e+10
1.709352e-01 3.609697e+10 4.765864e+10
1.726382e-01 3.559592e+10 4.708512e+10
1.743582e-01 3.511917e+10 4.643446e+10
1.760952e-01 3.468313e+10 4.579192e+10
1.778496e-01 3.423197e+10 4.518117e+10
1.796215e-01 3.379597e+10 4.452194e+10
1.814110e-01 3.336154e+10 4.394547e+10
1.832183e-01 3.293066e+10 4.339408e+10
1.850437e-01 3.250211e+10 4.284736e+10
1.868872e-01 3.209087e+10 4.230154e+10
1.887491e-01 3.168062e+10 4.176724e+10
1.906296e-01 3.128067e+10 4.122137e+10
1.925288e-01 3.090255e+10 4.067999e+10
1.944469e-01 3.052688e+10 4.015978e+10
1.963841e-01 3.013200e+10 3.958434e+10
1.983406e-01 2.975499e+10 3.899529e+10
2.003166e-01 2.937904e+10 3.843594e+10
2.023123e-01 2.903756e+10 3.792315e+10
2.043279e-01 2.869082e+10 3.746108e+10
2.063635e-01 2.834283e+10 3.693709e+10
2.084195e-01 2.800575e+10 3.645180e+10
2.104959e-01 2.765727e+10 3.598727e+10
2.125930e-01 2.730297e+10 3.554428e+10
2.147110e-01 2.696102e+10 3.508401e+10
2.168501e-01 2.662023e+10 3.462320e+10
2.190105e-01 2.627693e+10 3.414961e+10
2.211925e-01 2.594554e+10 3.369661e+10
2.233961e-01 2.560275e+10 3.325041e+10
2.256218e-01 2.527369e+10 3.280197e+10
2.278696e-01 2.494944e+10 3.236553e+10
2.301398e-01 2.463707e+10 3.193692e+10
2.324326e-01 2.432682e+10 3.151668e+10
2.347482e-01 2.402211e+10 3.108982e+10
2.370870e-01 2.372154e+10 3.067833e+10
2.394490e-01 2.341974e+10 3.029227e+10
2.418345e-01 2.311291e+10 2.989509e+10
2.442439e-01 2.280814e+10 2.948219e+10
2.466772e-01 2.251419e+10 2.906695e+10
2.491348e-01 2.222248e+10 2.866935e+10
2.516168e-01 2.193420e+10 2.829546e+10
2.541236e-01 2.164047e+10 2.790844e+10
2.566554e-01 2.136680e+10 2.750941e+10
2.592123e-01 2.110176e+10 2.712682e+10
2.617948e-01 2.083916e+10 2.676028e+10
2.644030e-01 2.056115e+10 2.639548e+10
2.670371e-01 2.029805e+10 2.605759e+10
2.696976e-01 2.003639e+10 2.570321e+10
2.723845e-01 1.977084e+10 2.536251e+10
2.750982e-01 1.951354e+10 2.501780e+10
2.778389e-01 1.926768e+10 2.468862e+10
2.806069e-01 1.899318e+10 2.435328e+10
2.834025e-01 1.875341e+10 2.400999e+10
2.862260e-01 1.850306e+10 2.368006e+10
2.890775e-01 1.826215e+10 2.336393e+10
2.919575e-01 1.803393e+10 2.304272e+10
2.948662e-01 1.781530e+10 2.274840e+10
2.978039e-01 1.757223e+10 2.244876e+10
3.007708e-01 1.733796e+10 2.215837e+10
3.037673e-01 1.712085e+10 2.186929e+10
3.067937e-01 1.691399e+10 2.156387e+10
3.098501e-01 1.669485e+10 2.127397e+10
3.129371e-01 1.648570e+10 2.098227e+10
3.160548e-01 1.625026e+10 2.070697e+10
3.192035e-01 1.602431e+10 2.043501e+10
3.223837e-01 1.582148e+10 2.017015e+10
3.255955e-01 1.562138e+10 1.990881e+10
3.288393e-01 1.541661e+10 1.961977e+10
3.321154e-01 1.520586e+10 1.935831e+10
3.354242e-01 1.500611e+10 1.910311e+10
3.387659e-01 1.480918e+10 1.883878e+10
3.421410e-01 1.461810e+10 1.858615e+10
3.455496e-01 1.442375e+10 1.834864e+10
3.489922e-01 1.423636e+10 1.810907e+10
3.524691e-01 1.404189e+10 1.786768e+10
3.559807e-01 1.386802e+10 1.762689e+10
3.595272e-01 1.369135e+10 1.739468e+10
3.631090e-01 1.352149e+10 1.717273e+10
3.667266e-01 1.333587e+10 1.695290e+10
3.703802e-01 1.316528e+10 1.673454e+10
3.740702e-01 1.299914e+10 1.652174e+10
3.777969e-01 1.281317e+10 1.630393e+10
3.815608e-01 1.263245e+10 1.608879e+10
3.853622e-01 1.246453e+10 1.587863e+10
3.892014e-01 1.230639e+10 1.567783e+10
3.930789e-01 1.213998e+10 1.547303e+10
3.969950e-01 1.198341e+10 1.526857e+10
4.009502e-01 1.182877e+10 1.507646e+10
4.049447e-01 1.167004e+10 1.487392e+10
4.089791e-01 1.151910e+10 1.467690e+10
4.130536e-01 1.136892e+10 1.448148e+10
4.171687e-01 1.122371e+10 1.428665e+10
4.213249e-01 1.107082e+10 1.410951e+10
4.255224e-01 1.092020e+10 1.393184e+10
4.297618e-01 1.077027e+10 1.374275e+10
4.340433e-01 1.062239e+10 1.356178e+10
4.383676e-01 1.048066e+10 1.338277e+10
4.427349e-01 1.033747e+10 1.319715e+10
4.471458e-01 1.019388e+10 1.301353e+10
4.516005e-01 1.005378e+10 1.283627e+10
4.560997e-01 9.922311e+09 1.267382e+10
4.606437e-01 9.792275e+09 1.251247e+10
4.652329e-01 9.667590e+09 1.235131e+10
4.698679e-01 9.536102e+09 1.219425e+10
4.745491e-01 9.411247e+09 1.203679e+10
4.792769e-01 9.282376e+09 1.186735e+10
4.840518e-01 9.156255e+09 1.170733e+10
4.888742e-01 9.027545e+09 1.155485e+10
4.937447e-01 8.906880e+09 1.140580e+10
4.986638e-01 8.783075e+09 1.125795e+10
5.036318e-01 8.660587e+09 1.110995e+10
5.086493e-01 8.541480e+09 1.096746e+10
5.137168e-01 8.422305e+09 1.081539e+10
5.188349e-01 8.304886e+09 1.067347e+10
5.240038e-01 8.196436e+09 1.052677e+10
5.292243e-01 8.091317e+09 1.038268e+10
5.344968e-01 7.987788e+09 1.024990e+10
5.398219e-01 7.882088e+09 1.011733e+10
5.452000e-01 7.779636e+09 9.991545e+09
5.506316e-01 7.675830e+09 9.866355e+09
5.561174e-01 7.568085e+09 9.730547e+09
5.616578e-01 7.461790e+09 9.610004e+09
5.672535e-01 7.358983e+09 9.487714e+09
5.729048e-01 7.259383e+09 9.367446e+09
5.786125e-01 7.159767e+09 9.240345e+09
5.843771e-01 7.065553e+09 9.112183e+09
5.901990e-01 6.965738e+09 8.985595e+09
5.960790e-01 6.867257e+09 8.865438e+09
6.020176e-01 6.770260e+09 8.742670e+09
6.080153e-01 6.674912e+09 8.613750e+09
6.140728e-01 6.585913e+09 8.500185e+09
6.201906e-01 6.496930e+09 8.386683e+09
6.263694e-01 6.406541e+09 8.278896e+09
6.326097e-01 6.317360e+09 8.167696e+09
6.389122e-01 6.228591e+09 8.063290e+09
6.452775e-01 6.140699e+09 7.960175e+09
6.517062e-01 6.054426e+09 7.858277e+09
6.581990e-01 5.972956e+09 7.757753e+09
6.647564e-01 5.889637e+09 7.657550e+09
6.713792e-01 5.811211e+09 7.560836e+09
6.780679e-01 5.728179e+09 7.461579e+09
6.848233e-01 5.646283e+09 7.368660e+09
6.916460e-01 5.565507e+09 7.272555e+09
6.985367e-01 5.485836e+09 7.176831e+09
7.054960e-01 5.407955e+09 7.081054e+09
7.125246e-01 5.331491e+09 6.985898e+09
7.196233e-01 5.258231e+09 6.892194e+09
7.267927e-01 5.182841e+09 6.800355e+09
7.340335e-01 5.111290e+09 6.714826e+09
7.413465e-01 5.037385e+09 6.625322e+09
7.487323e-01 4.965700e+09 6.530307e+09
7.561917e-01 4.896654e+09 6.438707e+09
7.637254e-01 4.828119e+09 6.353356e+09
7.713341e-01 4.758763e+09 6.264641e+09
7.790187e-01 4.694755e+09 6.177694e+09
7.867798e-01 4.629379e+09 6.092875e+09
7.946183e-01 4.561889e+09 6.008540e+09
8.025348e-01 4.495379e+09 5.927991e+09
8.105303e-01 4.433569e+09 5.847174e+09
8.186053e-01 4.369671e+09 5.767153e+09
8.267608e-01 4.308212e+09 5.689147e+09
8.349976e-01 4.246053e+09 5.612462e+09
8.433165e-01 4.184134e+09 5.536398e+09
8.517182e-01 4.124527e+09 5.464176e+09
8.602036e-01 4.066225e+09 5.390556e+09
8.687735e-01 4.008734e+09 5.320484e+09
8.774289e-01 3.950688e+09 5.251175e+09
8.861704e-01 3.894927e+09 5.179005e+09
8.949991e-01 3.840541e+09 5.107321e+09
9.039157e-01 3.786187e+09 5.037260e+09
9.129211e-01 3.731285e+09 4.969433e+09
9.220163e-01 3.675211e+09 4.902570e+09
9.312021e-01 3.619419e+09 4.835073e+09
9.404793e-01 3.569213e+09 4.769136e+09
9.498491e-01 3.520179e+09 4.705291e+09
9.593121e-01 3.472094e+09 4.643616e+09
9.688695e-01 3.425269e+09 4.582286e+09
9.785220e-01 3.375534e+09 4.520838e+09
9.882707e-01 3.323173e+09 4.456323e+09
9.981166e-01 3.276528e+09 4.392614e+09
1.008061e+00 3.231613e+09 4.329440e+09
1.018104e+00 3.187274e+09 4.268562e+09
1.028247e+00 3.140345e+09 4.211585e+09
1.038491e+00 3.098456e+09 4.155341e+09
1.048837e+00 3.054210e+09 4.096512e+09
1.059286e+00 3.007811e+09 4.039150e+09
1.069839e+00 2.964362e+09 3.983796e+09
1.080498e+00 2.922474e+09 3.930158e+09
1.091263e+00 2.880110e+09 3.878459e+09
1.102135e+00 2.838109e+09 3.826456e+09
1.113115e+00 2.795983e+09 3.775384e+09
1.124204e+00 2.754821e+09 3.724348e+09
1.135405e+00 2.714060e+09 3.674607e+09
1.146716e+00 2.672149e+09 3.623126e+09
1.158141e+00 2.632626e+09 3.572167e+09
1.169679e+00 2.596644e+09 3.521831e+09
1.181332e+00 2.558017e+09 3.475283e+09
1.193101e+00 2.521094e+09 3.429894e+09
1.204988e+00 2.482444e+09 3.384699e+09
1.216993e+00 2.445683e+09 3.338112e+09
1.229117e+00 2.409434e+09 3.296989e+09
1.241363e+00 2.373089e+09 3.251018e+09
1.253730e+00 2.338584e+09 3.210450e+09
1.266220e+00 2.304286e+09 3.167368e+09
1.278835e+00 2.269882e+09 3.125096e+09
1.291576e+00 2.235233e+09 3.080552e+09
1.304444e+00 2.201713e+09 3.035951e+09
1.317439e+00 2.169522e+09 2.993121e+09
1.330565e+00 2.137786e+09 2.950094e+09
1.343821e+00 2.106497e+09 2.912257e+09
1.357209e+00 2.075665e+09 2.874176e+09
1.370730e+00 2.045201e+09 2.833350e+09
1.384386e+00 2.013374e+09 2.791750e+09
1.398179e+00 1.983037e+09 2.753718e+09
1.412108e+00 1.954675e+09 2.715523e+09
1.426177e+00 1.926765e+09 2.678763e+09
1.440385e+00 1.897302e+09 2.642643e+09
1.454735e+00 1.867956e+09 2.606981e+09
1.469229e+00 1.838172e+09 2.572908e+09
1.483866e+00 1.808728e+09 2.536993e+09
1.498649e+00 1.779973e+09 2.502356e+09
1.513580e+00 1.752011e+09 2.467922e+09
1.528659e+00 1.725863e+09 2.433530e+09
1.543889e+00 1.699679e+09 2.399882e+09
1.559270e+00 1.673133e+09 2.365718e+09
1.574805e+00 1.648235e+09 2.333056e+09
1.590494e+00 1.622779e+09 2.301706e+09
1.606340e+00 1.596791e+09 2.268206e+09
1.622343e+00 1.573597e+09 2.237304e+09
1.638506e+00 1.550529e+09 2.207130e+09
1.654830e+00 1.527582e+09 2.176933e+09
1.671317e+00 1.504374e+09 2.146004e+09
1.687967e+00 1.480379e+09 2.117078e+09
1.704784e+00 1.455661e+09 2.088369e+09
1.721768e+00 1.433497e+09 2.058400e+09
1.738922e+00 1.410738e+09 2.030207e+09
1.756246e+00 1.387636e+09 2.001585e+09
1.773743e+00 1.367073e+09 1.971922e+09
1.791414e+00 1.345101e+09 1.944964e+09
1.809262e+00 1.323456e+09 1.918316e+09
1.827287e+00 1.302168e+09 1.889778e+09
1.845492e+00 1.281784e+09 1.864207e+09
1.863878e+00 1.262188e+09 1.838077e+09
1.882447e+00 1.240269e+09 1.812710e+09
1.901201e+00 1.219611e+09 1.787397e+09
1.920142e+00 1.200168e+09 1.761123e+09
1.939272e+00 1.181364e+09 1.737853e+09
1.958592e+00 1.163037e+09 1.714499e+09
1.978105e+00 1.144606e+09 1.690959e+09
1.997813e+00 1.126981e+09 1.667453e+09
2.017716e+00 1.109034e+09 1.644102e+09
2.037818e+00 1.092218e+09 1.621304e+09
2.058120e+00 1.074767e+09 1.597614e+09
2.078625e+00 1.057744e+09 1.575392e+09
2.099333e+00 1.040956e+09 1.554053e+09
2.120248e+00 1.024399e+09 1.533385e+09
2.141372e+00 1.008157e+09 1.512117e+09
2.162706e+00 9.921467e+08 1.490882e+09
2.184252e+00 9.758778e+08 1.469331e+09
2.206013e+00 9.579706e+08 1.448066e+09
2.227991e+00 9.427960e+08 1.428120e+09
2.250188e+00 9.276555e+08 1.408509e+09
2.272606e+00 9.127848e+08 1.388557e+09
2.295247e+00 8.974235e+08 1.367979e+09
2.318114e+00 8.822094e+08 1.348589e+09
2.341209e+00 8.673253e+08 1.328963e+09
2.364533e+00 8.534686e+08 1.309595e+09
2.388091e+00 8.405609e+08 1.292001e+09
2.411882e+00 8.265279e+08 1.274450e+09
2.435911e+00 8.129021e+08 1.254154e+09
2.460179e+00 8.001358e+08 1.236561e+09
2.484690e+00 7.880154e+08 1.219085e+09
2.509444e+00 7.744533e+08 1.201995e+09
2.534445e+00 7.611810e+08 1.184724e+09
2.559694e+00 7.481070e+08 1.167881e+09
2.585196e+00 7.361194e+08 1.151060e+09
2.610951e+00 7.237359e+08 1.134266e+09
2.636964e+00 7.119296e+08 1.117951e+09
2.663235e+00 6.995440e+08 1.102228e+09
2.689768e+00 6.873911e+08 1.086379e+09
2.716565e+00 6.754232e+08 1.070090e+09
2.743630e+00 6.636379e+08 1.054030e+09
2.770964e+00 6.523424e+08 1.037999e+09
2.798570e+00 6.406965e+08 1.022209e+09
2.826451e+00 6.290923e+08 1.007014e+09
2.854610e+00 6.179549e+08 9.920209e+08
2.883050e+00 6.069023e+08 9.772278e+08
2.911773e+00 5.955829e+08 9.630540e+08
2.940782e+00 5.848541e+08 9.488553e+08
2.970080e+00 5.743736e+08 9.348417e+08
2.999670e+00 5.641469e+08 9.209393e+08
3.029555e+00 5.543043e+08 9.071131e+08
3.059737e+00 5.445784e+08 8.933942e+08
3.090221e+00 5.342248e+08 8.797463e+08
3.121008e+00 5.245649e+08 8.663990e+08
3.152101e+00 5.157140e+08 8.537774e+08
3.183505e+00 5.067136e+08 8.415707e+08
3.215221e+00 4.973870e+08 8.295070e+08
3.247253e+00 4.883387e+08 8.174327e+08
3.279605e+00 4.794334e+08 8.048174e+08
3.312279e+00 4.706025e+08 7.926505e+08
3.345278e+00 4.619688e+08 7.806347e+08
3.378606e+00 4.534716e+08 7.689786e+08
3.412266e+00 4.444803e+08 7.577816e+08
3.446261e+00 4.358235e+08 7.466260e+08
3.480595e+00 4.276345e+08 7.355305e+08
3.515271e+00 4.195836e+08 7.244746e+08
3.550293e+00 4.114839e+08 7.129860e+08
3.585664e+00 4.038787e+08 7.023077e+08
3.621386e+00 3.962242e+08 6.917732e+08
3.657465e+00 3.889063e+08 6.815689e+08
3.693903e+00 3.807503e+08 6.708870e+08
3.730705e+00 3.735835e+08 6.609535e+08
3.767873e+00 3.665381e+08 6.513558e+08
3.805411e+00 3.596400e+08 6.418253e+08
3.843323e+00 3.528528e+08 6.324694e+08
3.881613e+00 3.457743e+08 6.231194e+08
3.920284e+00 3.392523e+08 6.139806e+08
3.959341e+00 3.328312e+08 6.050941e+08
3.998787e+00 3.264061e+08 5.962070e+08
4.038625e+00 3.200154e+08 5.873564e+08
4.078861e+00 3.135639e+08 5.786716e+08
4.119497e+00 3.078941e+08 5.701404e+08
4.160539e+00 3.018803e+08 5.613347e+08
4.201989e+00 2.960035e+08 5.523799e+08
4.243852e+00 2.902234e+08 5.435450e+08
4.286132e+00 2.845413e+08 5.353704e+08
4.328834e+00 2.789498e+08 5.272701e+08
4.371961e+00 2.734723e+08 5.195920e+08
4.415517e+00 2.678101e+08 5.117163e+08
4.459508e+00 2.621899e+08 5.035718e+08
4.503936e+00 2.570591e+08 4.957523e+08
4.548808e+00 2.520834e+08 4.878291e+08
4.594126e+00 2.466381e+08 4.800190e+08
4.639896e+00 2.411989e+08 4.722650e+08
4.686122e+00 2.360883e+08 4.646264e+08
4.732808e+00 2.308145e+08 4.570553e+08
4.779960e+00 2.258441e+08 4.495397e+08
4.827581e+00 2.212344e+08 4.424087e+08
4.875677e+00 2.166198e+08 4.350799e+08
4.924252e+00 2.120820e+08 4.279677e+08
4.973311e+00 2.077312e+08 4.211895e+08
5.022858e+00 2.030245e+08 4.145428e+08
5.072900e+00 1.987709e+08 4.079909e+08
5.123439e+00 1.946054e+08 4.016995e+08
5.174483e+00 1.906029e+08 3.955530e+08
5.226035e+00 1.864959e+08 3.888662e+08
5.278100e+00 1.822828e+08 3.825580e+08
5.330684e+00 1.781469e+08 3.763455e+08
5.383792e+00 1.740796e+08 3.704240e+08
5.437429e+00 1.700671e+08 3.645251e+08
5.491601e+00 1.662375e+08 3.586251e+08
5.546312e+00 1.622813e+08 3.528060e+08
5.601568e+00 1.584166e+08 3.471450e+08
5.657375e+00 1.546913e+08 3.413775e+08
5.713738e+00 1.509328e+08 3.359944e+08
5.770662e+00 1.472746e+08 3.305326e+08
5.828153e+00 1.436328e+08 3.249162e+08
5.886217e+00 1.406921e+08 3.196112e+08
5.944860e+00 1.373598e+08 3.143857e+08
6.004087e+00 1.341034e+08 3.094195e+08
6.063904e+00 1.308929e+08 3.044537e+08
6.124317e+00 1.276914e+08 2.996017e+08
6.185331e+00 1.245875e+08 2.948723e+08
6.246954e+00 1.215897e+08 2.897593e+08
6.309191e+00 1.185228e+08 2.849646e+08
6.372047e+00 1.156339e+08 2.802464e+08
6.435530e+00 1.128250e+08 2.755970e+08
6.499645e+00 1.101291e+08 2.711486e+08
6.564399e+00 1.075272e+08 2.666348e+08
6.629798e+00 1.047558e+08 2.620699e+08
6.695849e+00 1.019190e+08 2.576455e+08
6.762558e+00 9.947470e+07 2.531217e+08
6.829931e+00 9.699552e+07 2.485868e+08
6.897976e+00 9.472039e+07 2.443126e+08
6.966698e+00 9.243027e+07 2.401145e+08
7.036105e+00 9.006469e+07 2.358612e+08
7.106204e+00 8.771990e+07 2.315186e+08
7.177001e+00 8.544100e+07 2.275076e+08
7.248503e+00 8.316974e+07 2.238403e+08
7.320718e+00 8.085223e+07 2.202254e+08
7.393652e+00 7.887034e+07 2.164859e+08
7.467313e+00 7.687568e+07 2.124861e+08
7.541707e+00 7.477848e+07 2.090086e+08
7.616843e+00 7.289823e+07 2.051887e+08
7.692728e+00 7.099912e+07 2.014022e+08
7.769368e+00 6.926149e+07 1.978846e+08
7.846772e+00 6.736764e+07 1.945955e+08
7.924947e+00 6.541277e+07 1.913776e+08
