# Energy(MeV) Phi16 Phi84
5.000000e-02 6.722641e+11 1.025393e+12
5.049814e-02 6.640660e+11 1.011123e+12
5.100123e-02 6.558498e+11 9.972021e+11
5.150934e-02 6.478163e+11 9.839057e+11
5.202252e-02 6.399152e+11 9.707862e+11
5.254080e-02 6.321640e+11 9.578850e+11
5.306425e-02 6.245296e+11 9.448907e+11
5.359291e-02 6.168457e+11 9.323029e+11
5.412684e-02 6.094631e+11 9.197858e+11
5.466609e-02 6.018388e+11 9.074192e+11
5.521071e-02 5.941806e+11 8.949461e+11
5.576076e-02 5.867722e+11 8.826403e+11
5.631629e-02 5.794853e+11 8.705021e+11
5.687735e-02 5.722887e+11 8.588313e+11
5.744400e-02 5.651813e+11 8.473883e+11
5.801630e-02 5.581619e+11 8.362107e+11
5.859430e-02 5.512300e+11 8.251184e+11
5.917806e-02 5.445904e+11 8.141336e+11
5.976763e-02 5.383034e+11 8.033175e+11
6.036308e-02 5.320885e+11 7.929718e+11
6.096446e-02 5.259450e+11 7.825033e+11
6.157183e-02 5.198720e+11 7.717728e+11
6.218525e-02 5.133684e+11 7.613546e+11
6.280478e-02 5.067156e+11 7.512147e+11
6.343049e-02 5.001818e+11 7.411860e+11
6.406243e-02 4.936443e+11 7.310693e+11
6.470066e-02 4.872326e+11 7.209956e+11
6.534526e-02 4.817852e+11 7.110600e+11
6.599627e-02 4.760568e+11 7.011235e+11
6.665377e-02 4.700055e+11 6.914080e+11
6.731782e-02 4.643117e+11 6.824280e+11
6.798849e-02 4.587716e+11 6.732714e+11
6.866584e-02 4.533133e+11 6.637215e+11
6.934994e-02 4.476636e+11 6.543069e+11
7.004085e-02 4.421857e+11 6.451139e+11
7.073865e-02 4.369257e+11 6.362954e+11
7.144339e-02 4.317276e+11 6.277799e+11
7.215516e-02 4.265909e+11 6.193782e+11
7.287402e-02 4.215148e+11 6.110886e+11
7.360005e-02 4.161491e+11 6.029097e+11
7.433330e-02 4.108279e+11 5.948165e+11
7.507386e-02 4.056084e+11 5.868265e+11
7.582180e-02 4.004894e+11 5.789437e+11
7.657719e-02 3.954346e+11 5.711665e+11
7.734011e-02 3.905787e+11 5.635314e+11
7.811062e-02 3.860436e+11 5.560718e+11
7.888881e-02 3.815609e+11 5.486219e+11
7.967476e-02 3.770996e+11 5.411185e+11
8.046854e-02 3.727502e+11 5.338616e+11
8.127022e-02 3.684121e+11 5.266502e+11
8.207989e-02 3.639754e+11 5.197301e+11
8.289763e-02 3.595465e+11 5.128308e+11
8.372351e-02 3.551316e+11 5.056976e+11
8.455763e-02 3.505967e+11 4.985119e+11
8.540005e-02 3.461421e+11 4.916907e+11
8.625086e-02 3.417605e+11 4.853454e+11
8.711015e-02 3.374343e+11 4.789466e+11
8.797801e-02 3.331627e+11 4.718222e+11
8.885451e-02 3.289450e+11 4.653580e+11
8.973974e-02 3.248118e+11 4.593874e+11
9.063379e-02 3.210192e+11 4.526204e+11
9.153674e-02 3.170375e+11 4.462352e+11
9.244870e-02 3.134860e+11 4.402070e+11
9.336974e-02 3.098040e+11 4.340633e+11
9.429995e-02 3.061971e+11 4.284301e+11
9.523943e-02 3.022603e+11 4.229273e+11
9.618827e-02 2.984645e+11 4.174883e+11
9.714657e-02 2.948672e+11 4.119550e+11
9.811441e-02 2.912317e+11 4.063632e+11
9.909190e-02 2.874486e+11 4.007516e+11
1.000791e-01 2.837237e+11 3.951511e+11
1.010762e-01 2.801801e+11 3.897409e+11
1.020832e-01 2.767126e+11 3.845306e+11
1.031002e-01 2.732487e+11 3.794015e+11
1.041274e-01 2.698727e+11 3.741941e+11
1.051647e-01 2.665983e+11 3.689791e+11
1.062125e-01 2.632902e+11 3.639153e+11
1.072706e-01 2.600620e+11 3.589209e+11
1.083393e-01 2.569162e+11 3.540493e+11
1.094187e-01 2.538219e+11 3.493165e+11
1.105088e-01 2.506814e+11 3.450322e+11
1.116098e-01 2.474726e+11 3.407943e+11
1.127217e-01 2.442935e+11 3.362019e+11
1.138447e-01 2.411629e+11 3.316363e+11
1.149789e-01 2.381160e+11 3.271375e+11
1.161244e-01 2.351363e+11 3.229650e+11
1.172813e-01 2.321935e+11 3.187744e+11
1.184498e-01 2.292871e+11 3.146393e+11
1.196298e-01 2.264167e+11 3.105415e+11
1.208217e-01 2.235818e+11 3.063397e+11
1.220254e-01 2.207001e+11 3.022266e+11
1.232411e-01 2.177919e+11 2.981861e+11
1.244689e-01 2.149296e+11 2.942781e+11
1.257089e-01 2.121966e+11 2.904945e+11
1.269613e-01 2.096983e+11 2.867470e+11
1.282262e-01 2.072462e+11 2.828383e+11
1.295037e-01 2.048222e+11 2.788987e+11
1.307939e-01 2.023990e+11 2.751470e+11
1.320970e-01 2.000006e+11 2.717729e+11
1.334130e-01 1.974089e+11 2.684399e+11
1.347422e-01 1.948318e+11 2.651475e+11
1.360846e-01 1.923772e+11 2.618397e+11
1.374403e-01 1.899954e+11 2.584459e+11
1.388096e-01 1.876928e+11 2.550790e+11
1.401925e-01 1.854383e+11 2.515896e+11
1.415892e-01 1.832286e+11 2.480872e+11
1.429998e-01 1.810852e+11 2.446145e+11
1.444245e-01 1.789467e+11 2.411936e+11
1.458634e-01 1.768416e+11 2.377906e+11
1.473166e-01 1.747044e+11 2.344784e+11
1.487842e-01 1.724647e+11 2.312110e+11
1.502665e-01 1.703233e+11 2.279850e+11
1.517636e-01 1.681012e+11 2.248422e+11
1.532756e-01 1.658901e+11 2.216803e+11
1.548026e-01 1.637080e+11 2.185013e+11
1.563448e-01 1.615740e+11 2.155306e+11
1.579025e-01 1.594798e+11 2.125475e+11
1.594756e-01 1.575921e+11 2.095669e+11
1.610644e-01 1.557361e+11 2.066276e+11
1.626690e-01 1.538344e+11 2.038425e+11
1.642897e-01 1.518860e+11 2.010712e+11
1.659264e-01 1.499063e+11 1.983964e+11
1.675795e-01 1.480736e+11 1.957247e+11
1.692491e-01 1.462165e+11 1.930528e+11
1.709352e-01 1.443879e+11 1.906346e+11
1.726382e-01 1.423837e+11 1.883405e+11
1.743582e-01 1.404767e+11 1.857378e+11
1.760952e-01 1.387325e+11 1.831677e+11
1.778496e-01 1.369279e+11 1.807247e+11
1.796215e-01 1.351839e+11 1.780878e+11
1.814110e-01 1.334462e+11 1.757819e+11
1.832183e-01 1.317226e+11 1.735763e+11
1.850437e-01 1.300084e+11 1.713894e+11
1.868872e-01 1.283635e+11 1.692062e+11
1.887491e-01 1.267225e+11 1.670689e+11
1.906296e-01 1.251227e+11 1.648855e+11
1.925288e-01 1.236102e+11 1.627200e+11
1.944469e-01 1.221075e+11 1.606391e+11
1.963841e-01 1.205280e+11 1.583374e+11
1.983406e-01 1.190200e+11 1.559811e+11
2.003166e-01 1.175162e+11 1.537438e+11
2.023123e-01 1.161502e+11 1.516926e+11
2.043279e-01 1.147633e+11 1.498443e+11
2.063635e-01 1.133713e+11 1.477484e+11
2.084195e-01 1.120230e+11 1.458072e+11
2.104959e-01 1.106291e+11 1.439491e+11
2.125930e-01 1.092119e+11 1.421771e+11
2.147110e-01 1.078441e+11 1.403360e+11
2.168501e-01 1.064809e+11 1.384928e+11
2.190105e-01 1.051077e+11 1.365984e+11
2.211925e-01 1.037821e+11 1.347864e+11
2.233961e-01 1.024110e+11 1.330016e+11
2.256218e-01 1.010948e+11 1.312079e+11
2.278696e-01 9.979776e+10 1.294621e+11
2.301398e-01 9.854829e+10 1.277477e+11
2.324326e-01 9.730728e+10 1.260667e+11
2.347482e-01 9.608845e+10 1.243593e+11
2.370870e-01 9.488614e+10 1.227133e+11
2.394490e-01 9.367896e+10 1.211691e+11
2.418345e-01 9.245164e+10 1.195803e+11
2.442439e-01 9.123254e+10 1.179288e+11
2.466772e-01 9.005677e+10 1.162678e+11
2.491348e-01 8.888992e+10 1.146774e+11
2.516168e-01 8.773680e+10 1.131818e+11
2.541236e-01 8.656189e+10 1.116338e+11
2.566554e-01 8.546721e+10 1.100376e+11
2.592123e-01 8.440703e+10 1.085073e+11
2.617948e-01 8.335662e+10 1.070411e+11
2.644030e-01 8.224460e+10 1.055819e+11
2.670371e-01 8.119219e+10 1.042303e+11
2.696976e-01 8.014556e+10 1.028129e+11
2.723845e-01 7.908334e+10 1.014501e+11
2.750982e-01 7.805418e+10 1.000712e+11
2.778389e-01 7.707072e+10 9.875448e+10
2.806069e-01 7.597271e+10 9.741313e+10
2.834025e-01 7.501364e+10 9.603995e+10
2.862260e-01 7.401224e+10 9.472025e+10
2.890775e-01 7.304862e+10 9.345572e+10
2.919575e-01 7.213570e+10 9.217089e+10
2.948662e-01 7.126118e+10 9.099360e+10
2.978039e-01 7.028893e+10 8.979504e+10
3.007708e-01 6.935185e+10 8.863349e+10
3.037673e-01 6.848341e+10 8.747716e+10
3.067937e-01 6.765595e+10 8.625547e+10
3.098501e-01 6.677941e+10 8.509586e+10
3.129371e-01 6.594279e+10 8.392907e+10
3.160548e-01 6.500103e+10 8.282786e+10
3.192035e-01 6.409724e+10 8.174006e+10
3.223837e-01 6.328590e+10 8.068059e+10
3.255955e-01 6.248550e+10 7.963523e+10
3.288393e-01 6.166643e+10 7.847906e+10
3.321154e-01 6.082345e+10 7.743326e+10
3.354242e-01 6.002444e+10 7.641245e+10
3.387659e-01 5.923672e+10 7.535512e+10
3.421410e-01 5.847242e+10 7.434462e+10
3.455496e-01 5.769499e+10 7.339456e+10
3.489922e-01 5.694543e+10 7.243629e+10
3.524691e-01 5.616755e+10 7.147072e+10
3.559807e-01 5.547208e+10 7.050755e+10
3.595272e-01 5.476540e+10 6.957873e+10
3.631090e-01 5.408598e+10 6.869092e+10
3.667266e-01 5.334346e+10 6.781160e+10
3.703802e-01 5.266113e+10 6.693817e+10
3.740702e-01 5.199658e+10 6.608697e+10
3.777969e-01 5.125270e+10 6.521570e+10
3.815608e-01 5.052980e+10 6.435518e+10
3.853622e-01 4.985812e+10 6.351453e+10
3.892014e-01 4.922555e+10 6.271131e+10
3.930789e-01 4.855992e+10 6.189210e+10
3.969950e-01 4.793364e+10 6.107427e+10
4.009502e-01 4.731509e+10 6.030585e+10
4.049447e-01 4.668014e+10 5.949566e+10
4.089791e-01 4.607640e+10 5.870762e+10
4.130536e-01 4.547566e+10 5.792592e+10
4.171687e-01 4.489483e+10 5.714660e+10
4.213249e-01 4.428329e+10 5.643805e+10
4.255224e-01 4.368080e+10 5.572736e+10
4.297618e-01 4.308107e+10 5.497099e+10
4.340433e-01 4.248956e+10 5.424713e+10
4.383676e-01 4.192265e+10 5.353109e+10
4.427349e-01 4.134988e+10 5.278861e+10
4.471458e-01 4.077552e+10 5.205413e+10
4.516005e-01 4.021513e+10 5.134510e+10
4.560997e-01 3.968924e+10 5.069527e+10
4.606437e-01 3.916910e+10 5.004989e+10
4.652329e-01 3.867036e+10 4.940524e+10
4.698679e-01 3.814441e+10 4.877699e+10
4.745491e-01 3.764499e+10 4.814714e+10
4.792769e-01 3.712950e+10 4.746938e+10
4.840518e-01 3.662502e+10 4.682932e+10
4.888742e-01 3.611018e+10 4.621939e+10
4.937447e-01 3.562752e+10 4.562322e+10
4.986638e-01 3.513230e+10 4.503179e+10
5.036318e-01 3.464235e+10 4.443982e+10
5.086493e-01 3.416592e+10 4.386983e+10
5.137168e-01 3.368922e+10 4.326154e+10
5.188349e-01 3.321955e+10 4.269389e+10
5.240038e-01 3.278575e+10 4.210708e+10
5.292243e-01 3.236527e+10 4.153070e+10
5.344968e-01 3.195115e+10 4.099959e+10
5.398219e-01 3.152835e+10 4.046933e+10
5.452000e-01 3.111855e+10 3.996618e+10
5.506316e-01 3.070332e+10 3.946542e+10
5.561174e-01 3.027234e+10 3.892219e+10
5.616578e-01 2.984716e+10 3.844002e+10
5.672535e-01 2.943593e+10 3.795086e+10
5.729048e-01 2.903753e+10 3.746979e+10
5.786125e-01 2.863907e+10 3.696138e+10
5.843771e-01 2.826221e+10 3.644873e+10
5.901990e-01 2.786295e+10 3.594238e+10
5.960790e-01 2.746903e+10 3.546175e+10
6.020176e-01 2.708104e+10 3.497068e+10
6.080153e-01 2.669965e+10 3.445500e+10
6.140728e-01 2.634365e+10 3.400074e+10
6.201906e-01 2.598772e+10 3.354673e+10
6.263694e-01 2.562617e+10 3.311558e+10
6.326097e-01 2.526944e+10 3.267078e+10
6.389122e-01 2.491436e+10 3.225316e+10
6.452775e-01 2.456280e+10 3.184070e+10
6.517062e-01 2.421771e+10 3.143311e+10
6.581990e-01 2.389182e+10 3.103101e+10
6.647564e-01 2.355855e+10 3.063020e+10
6.713792e-01 2.324484e+10 3.024335e+10
6.780679e-01 2.291272e+10 2.984631e+10
6.848233e-01 2.258513e+10 2.947464e+10
6.916460e-01 2.226203e+10 2.909022e+10
6.985367e-01 2.194335e+10 2.870732e+10
7.054960e-01 2.163182e+10 2.832422e+10
7.125246e-01 2.132597e+10 2.794359e+10
7.196233e-01 2.103292e+10 2.756877e+10
7.267927e-01 2.073136e+10 2.720142e+10
7.340335e-01 2.044516e+10 2.685930e+10
7.413465e-01 2.014954e+10 2.650129e+10
7.487323e-01 1.986280e+10 2.612123e+10
7.561917e-01 1.958661e+10 2.575483e+10
7.637254e-01 1.931248e+10 2.541342e+10
7.713341e-01 1.903505e+10 2.505856e+10
7.790187e-01 1.877902e+10 2.471078e+10
7.867798e-01 1.851752e+10 2.437150e+10
7.946183e-01 1.824755e+10 2.403416e+10
8.025348e-01 1.798151e+10 2.371196e+10
8.105303e-01 1.773428e+10 2.338870e+10
8.186053e-01 1.747869e+10 2.306861e+10
8.267608e-01 1.723285e+10 2.275659e+10
8.349976e-01 1.698421e+10 2.244985e+10
8.433165e-01 1.673654e+10 2.214559e+10
8.517182e-01 1.649811e+10 2.185670e+10
8.602036e-01 1.626490e+10 2.156222e+10
8.687735e-01 1.603494e+10 2.128194e+10
8.774289e-01 1.580275e+10 2.100470e+10
8.861704e-01 1.557971e+10 2.071602e+10
8.949991e-01 1.536216e+10 2.042928e+10
9.039157e-01 1.514475e+10 2.014904e+10
9.129211e-01 1.492514e+10 1.987773e+10
9.220163e-01 1.470085e+10 1.961028e+10
9.312021e-01 1.447768e+10 1.934029e+10
9.404793e-01 1.427685e+10 1.907654e+10
9.498491e-01 1.408072e+10 1.882117e+10
9.593121e-01 1.388837e+10 1.857447e+10
9.688695e-01 1.370107e+10 1.832915e+10
9.785220e-01 1.350214e+10 1.808335e+10
9.882707e-01 1.329269e+10 1.782529e+10
9.981166e-01 1.310611e+10 1.757046e+10
1.008061e+00 1.292645e+10 1.731776e+10
1.018104e+00 1.274910e+10 1.707425e+10
1.028247e+00 1.256138e+10 1.684634e+10
1.038491e+00 1.239383e+10 1.662136e+10
1.048837e+00 1.221684e+10 1.638605e+10
1.059286e+00 1.203124e+10 1.615660e+10
1.069839e+00 1.185745e+10 1.593519e+10
1.080498e+00 1.168990e+10 1.572063e+10
1.091263e+00 1.152044e+10 1.551384e+10
1.102135e+00 1.135244e+10 1.530583e+10
1.113115e+00 1.118393e+10 1.510154e+10
1.124204e+00 1.101928e+10 1.489739e+10
1.135405e+00 1.085624e+10 1.469843e+10
1.146716e+00 1.068859e+10 1.449250e+10
1.158141e+00 1.053050e+10 1.428867e+10
1.169679e+00 1.038657e+10 1.408732e+10
1.181332e+00 1.023207e+10 1.390113e+10
1.193101e+00 1.008438e+10 1.371958e+10
1.204988e+00 9.929774e+09 1.353880e+10
1.216993e+00 9.782734e+09 1.335245e+10
1.229117e+00 9.637736e+09 1.318796e+10
1.241363e+00 9.492355e+09 1.300407e+10
1.253730e+00 9.354338e+09 1.284180e+10
1.266220e+00 9.217146e+09 1.266947e+10
1.278835e+00 9.079527e+09 1.250039e+10
1.291576e+00 8.940932e+09 1.232221e+10
1.304444e+00 8.806852e+09 1.214380e+10
1.317439e+00 8.678089e+09 1.197249e+10
1.330565e+00 8.551142e+09 1.180038e+10
1.343821e+00 8.425988e+09 1.164903e+10
1.357209e+00 8.302661e+09 1.149670e+10
1.370730e+00 8.180802e+09 1.133340e+10
1.384386e+00 8.053497e+09 1.116700e+10
1.398179e+00 7.932148e+09 1.101487e+10
1.412108e+00 7.818700e+09 1.086209e+10
1.426177e+00 7.707061e+09 1.071505e+10
1.440385e+00 7.589207e+09 1.057057e+10
1.454735e+00 7.471826e+09 1.042792e+10
1.469229e+00 7.352686e+09 1.029163e+10
1.483866e+00 7.234910e+09 1.014797e+10
1.498649e+00 7.119890e+09 1.000942e+10
1.513580e+00 7.008046e+09 9.871688e+09
1.528659e+00 6.903453e+09 9.734119e+09
1.543889e+00 6.798714e+09 9.599530e+09
1.559270e+00 6.692530e+09 9.462874e+09
1.574805e+00 6.592939e+09 9.332225e+09
1.590494e+00 6.491116e+09 9.206825e+09
1.606340e+00 6.387164e+09 9.072824e+09
1.622343e+00 6.294389e+09 8.949214e+09
1.638506e+00 6.202117e+09 8.828520e+09
1.654830e+00 6.110327e+09 8.707733e+09
1.671317e+00 6.017495e+09 8.584018e+09
1.687967e+00 5.921515e+09 8.468310e+09
1.704784e+00 5.822643e+09 8.353478e+09
1.721768e+00 5.733989e+09 8.233600e+09
1.738922e+00 5.642950e+09 8.120827e+09
1.756246e+00 5.550542e+09 8.006342e+09
1.773743e+00 5.468293e+09 7.887687e+09
1.791414e+00 5.380405e+09 7.779857e+09
1.809262e+00 5.293825e+09 7.673265e+09
1.827287e+00 5.208671e+09 7.559114e+09
1.845492e+00 5.127134e+09 7.456827e+09
1.863878e+00 5.048751e+09 7.352309e+09
1.882447e+00 4.961075e+09 7.250841e+09
1.901201e+00 4.878444e+09 7.149588e+09
1.920142e+00 4.800671e+09 7.044493e+09
1.939272e+00 4.725455e+09 6.951411e+09
1.958592e+00 4.652149e+09 6.857997e+09
1.978105e+00 4.578425e+09 6.763836e+09
1.997813e+00 4.507924e+09 6.669812e+09
2.017716e+00 4.436134e+09 6.576409e+09
2.037818e+00 4.368873e+09 6.485215e+09
2.058120e+00 4.299067e+09 6.390455e+09
2.078625e+00 4.230976e+09 6.301569e+09
2.099333e+00 4.163823e+09 6.216212e+09
2.120248e+00 4.097595e+09 6.133542e+09
2.141372e+00 4.032627e+09 6.048468e+09
2.162706e+00 3.968587e+09 5.963529e+09
2.184252e+00 3.903511e+09 5.877322e+09
2.206013e+00 3.831882e+09 5.792264e+09
2.227991e+00 3.771184e+09 5.712480e+09
2.250188e+00 3.710622e+09 5.634034e+09
2.272606e+00 3.651139e+09 5.554227e+09
2.295247e+00 3.589694e+09 5.471917e+09
2.318114e+00 3.528838e+09 5.394355e+09
2.341209e+00 3.469301e+09 5.315851e+09
2.364533e+00 3.413874e+09 5.238382e+09
2.388091e+00 3.362244e+09 5.168003e+09
2.411882e+00 3.306112e+09 5.097800e+09
2.435911e+00 3.251609e+09 5.016618e+09
2.460179e+00 3.200543e+09 4.946243e+09
2.484690e+00 3.152061e+09 4.876340e+09
2.509444e+00 3.097813e+09 4.807980e+09
2.534445e+00 3.044724e+09 4.738896e+09
2.559694e+00 2.992428e+09 4.671525e+09
2.585196e+00 2.944477e+09 4.604242e+09
2.610951e+00 2.894944e+09 4.537064e+09
2.636964e+00 2.847719e+09 4.471802e+09
2.663235e+00 2.798176e+09 4.408913e+09
2.689768e+00 2.749564e+09 4.345515e+09
2.716565e+00 2.701693e+09 4.280360e+09
2.743630e+00 2.654551e+09 4.216121e+09
2.770964e+00 2.609370e+09 4.151997e+09
2.798570e+00 2.562786e+09 4.088836e+09
2.826451e+00 2.516369e+09 4.028055e+09
2.854610e+00 2.471820e+09 3.968083e+09
2.883050e+00 2.427609e+09 3.908911e+09
2.911773e+00 2.382332e+09 3.852216e+09
2.940782e+00 2.339416e+09 3.795421e+09
2.970080e+00 2.297494e+09 3.739367e+09
2.999670e+00 2.256588e+09 3.683757e+09
3.029555e+00 2.217217e+09 3.628452e+09
3.059737e+00 2.178314e+09 3.573577e+09
3.090221e+00 2.136899e+09 3.518985e+09
3.121008e+00 2.098259e+09 3.465596e+09
3.152101e+00 2.062856e+09 3.415109e+09
3.183505e+00 2.026854e+09 3.366283e+09
3.215221e+00 1.989548e+09 3.318028e+09
3.247253e+00 1.953355e+09 3.269731e+09
3.279605e+00 1.917734e+09 3.219269e+09
3.312279e+00 1.882410e+09 3.170602e+09
3.345278e+00 1.847875e+09 3.122539e+09
3.378606e+00 1.813886e+09 3.075915e+09
3.412266e+00 1.777921e+09 3.031126e+09
3.446261e+00 1.743294e+09 2.986504e+09
3.480595e+00 1.710538e+09 2.942122e+09
3.515271e+00 1.678334e+09 2.897898e+09
3.550293e+00 1.645935e+09 2.851944e+09
3.585664e+00 1.615515e+09 2.809231e+09
3.621386e+00 1.584897e+09 2.767093e+09
3.657465e+00 1.555625e+09 2.726276e+09
3.693903e+00 1.523001e+09 2.683548e+09
3.730705e+00 1.494334e+09 2.643814e+09
3.767873e+00 1.466152e+09 2.605423e+09
3.805411e+00 1.438560e+09 2.567301e+09
3.843323e+00 1.411411e+09 2.529878e+09
3.881613e+00 1.383097e+09 2.492478e+09
3.920284e+00 1.357009e+09 2.455922e+09
3.959341e+00 1.331325e+09 2.420376e+09
3.998787e+00 1.305624e+09 2.384828e+09
4.038625e+00 1.280061e+09 2.349426e+09
4.078861e+00 1.254256e+09 2.314686e+09
4.119497e+00 1.231576e+09 2.280562e+09
4.160539e+00 1.207521e+09 2.245339e+09
4.201989e+00 1.184014e+09 2.209520e+09
4.243852e+00 1.160894e+09 2.174180e+09
4.286132e+00 1.138165e+09 2.141482e+09
4.328834e+00 1.115799e+09 2.109080e+09
4.371961e+00 1.093889e+09 2.078368e+09
4.415517e+00 1.071240e+09 2.046865e+09
4.459508e+00 1.048759e+09 2.014287e+09
4.503936e+00 1.028237e+09 1.983009e+09
4.548808e+00 1.008334e+09 1.951316e+09
4.594126e+00 9.865525e+08 1.920076e+09
4.639896e+00 9.647958e+08 1.889060e+09
4.686122e+00 9.443532e+08 1.858506e+09
4.732808e+00 9.232581e+08 1.828221e+09
4.779960e+00 9.033765e+08 1.798159e+09
4.827581e+00 8.849374e+08 1.769635e+09
4.875677e+00 8.664792e+08 1.740320e+09
4.924252e+00 8.483282e+08 1.711871e+09
4.973311e+00 8.309246e+08 1.684758e+09
5.022858e+00 8.120981e+08 1.658171e+09
5.072900e+00 7.950836e+08 1.631964e+09
5.123439e+00 7.784214e+08 1.606798e+09
5.174483e+00 7.624116e+08 1.582212e+09
5.226035e+00 7.459835e+08 1.555465e+09
5.278100e+00 7.291312e+08 1.530232e+09
5.330684e+00 7.125876e+08 1.505382e+09
5.383792e+00 6.963185e+08 1.481696e+09
5.437429e+00 6.802685e+08 1.458100e+09
5.491601e+00 6.649499e+08 1.434500e+09
5.546312e+00 6.491253e+08 1.411224e+09
5.601568e+00 6.336663e+08 1.388580e+09
5.657375e+00 6.187654e+08 1.365510e+09
5.713738e+00 6.037312e+08 1.343978e+09
5.770662e+00 5.890982e+08 1.322131e+09
5.828153e+00 5.745314e+08 1.299665e+09
5.886217e+00 5.627685e+08 1.278445e+09
5.944860e+00 5.494390e+08 1.257543e+09
6.004087e+00 5.364138e+08 1.237678e+09
6.063904e+00 5.235718e+08 1.217815e+09
6.124317e+00 5.107657e+08 1.198407e+09
6.185331e+00 4.983501e+08 1.179489e+09
6.246954e+00 4.863589e+08 1.159037e+09
6.309191e+00 4.740910e+08 1.139858e+09
6.372047e+00 4.625357e+08 1.120986e+09
6.435530e+00 4.512999e+08 1.102388e+09
6.499645e+00 4.405166e+08 1.084594e+09
6.564399e+00 4.301088e+08 1.066539e+09
6.629798e+00 4.190232e+08 1.048280e+09
6.695849e+00 4.076759e+08 1.030582e+09
6.762558e+00 3.978988e+08 1.012487e+09
6.829931e+00 3.879821e+08 9.943472e+08
6.897976e+00 3.788816e+08 9.772503e+08
6.966698e+00 3.697211e+08 9.604580e+08
7.036105e+00 3.602588e+08 9.434449e+08
7.106204e+00 3.508796e+08 9.260744e+08
7.177001e+00 3.417640e+08 9.100303e+08
7.248503e+00 3.326789e+08 8.953613e+08
7.320718e+00 3.234089e+08 8.809016e+08
7.393652e+00 3.154814e+08 8.659436e+08
7.467313e+00 3.075027e+08 8.499443e+08
7.541707e+00 2.991139e+08 8.360343e+08
7.616843e+00 2.915929e+08 8.207549e+08
7.692728e+00 2.839965e+08 8.056090e+08
7.769368e+00 2.770460e+08 7.915385e+08
7.846772e+00 2.694706e+08 7.783819e+08
7.924947e+00 2.616511e+08 7.655105e+08
