# Energy(MeV) Phi16 Phi84
1.000000e-01 4.003411e+12 1.505922e+13
1.018629e-01 3.797610e+12 1.430838e+13
1.037605e-01 3.596186e+12 1.359452e+13
1.056935e-01 3.418398e+12 1.291575e+13
1.076624e-01 3.250767e+12 1.227087e+13
1.096681e-01 3.086438e+12 1.165819e+13
1.117111e-01 2.930416e+12 1.107609e+13
1.137921e-01 2.782061e+12 1.052306e+13
1.159120e-01 2.640747e+12 9.997648e+12
1.180713e-01 2.507902e+12 9.497687e+12
1.202708e-01 2.384717e+12 9.020135e+12
1.225114e-01 2.264068e+12 8.564819e+12
1.247936e-01 2.149523e+12 8.132486e+12
1.271184e-01 2.040774e+12 7.726604e+12
1.294865e-01 1.937526e+12 7.345457e+12
1.318987e-01 1.839833e+12 6.983383e+12
1.343558e-01 1.747152e+12 6.635675e+12
1.368587e-01 1.660129e+12 6.304662e+12
1.394083e-01 1.586698e+12 5.990675e+12
1.420053e-01 1.516592e+12 5.693000e+12
1.446507e-01 1.438770e+12 5.409211e+12
1.473454e-01 1.362922e+12 5.136831e+12
1.500903e-01 1.291076e+12 4.880206e+12
1.528864e-01 1.223019e+12 4.636730e+12
1.557345e-01 1.161430e+12 4.405381e+12
1.586357e-01 1.103271e+12 4.185416e+12
1.615909e-01 1.048527e+12 3.976433e+12
1.646012e-01 9.964989e+11 3.777563e+12
1.676675e-01 9.470526e+11 3.588636e+12
1.707910e-01 8.990172e+11 3.409157e+12
1.739726e-01 8.526307e+11 3.238654e+12
1.772136e-01 8.086381e+11 3.076678e+12
1.805149e-01 7.669158e+11 2.923127e+12
1.838777e-01 7.279405e+11 2.776935e+12
1.873032e-01 6.911878e+11 2.638317e+12
1.907924e-01 6.558028e+11 2.507495e+12
1.943467e-01 6.238393e+11 2.383300e+12
1.979672e-01 5.925965e+11 2.264968e+12
2.016551e-01 5.633685e+11 2.152338e+12
2.054117e-01 5.361031e+11 2.044425e+12
2.092383e-01 5.110440e+11 1.941420e+12
2.131362e-01 4.871573e+11 1.843474e+12
2.171068e-01 4.643881e+11 1.750997e+12
2.211512e-01 4.414022e+11 1.662226e+12
2.252711e-01 4.194999e+11 1.579337e+12
2.294676e-01 3.986845e+11 1.500036e+12
2.337424e-01 3.789019e+11 1.424188e+12
2.380968e-01 3.601009e+11 1.352914e+12
2.425323e-01 3.422328e+11 1.284401e+12
2.470504e-01 3.252514e+11 1.219645e+12
2.516527e-01 3.091125e+11 1.158825e+12
2.563407e-01 2.937745e+11 1.101285e+12
2.611161e-01 2.791976e+11 1.046602e+12
2.659804e-01 2.653509e+11 9.945312e+11
2.709354e-01 2.522154e+11 9.456115e+11
2.759826e-01 2.397301e+11 8.990980e+11
2.811239e-01 2.278629e+11 8.545696e+11
2.863610e-01 2.165832e+11 8.117635e+11
2.916956e-01 2.059508e+11 7.710920e+11
2.971296e-01 1.958890e+11 7.327856e+11
3.026648e-01 1.863193e+11 6.962562e+11
3.083031e-01 1.773697e+11 6.615478e+11
3.140465e-01 1.692443e+11 6.285264e+11
3.198969e-01 1.614917e+11 5.971094e+11
3.258562e-01 1.533309e+11 5.672007e+11
3.319266e-01 1.455637e+11 5.387123e+11
3.381101e-01 1.381901e+11 5.116212e+11
3.444087e-01 1.311900e+11 4.861205e+11
3.508247e-01 1.245445e+11 4.618908e+11
3.573602e-01 1.182357e+11 4.388686e+11
3.640175e-01 1.122465e+11 4.169920e+11
3.707988e-01 1.065722e+11 3.958088e+11
3.777064e-01 1.012681e+11 3.756789e+11
3.847427e-01 9.622795e+10 3.565722e+11
3.919100e-01 9.143869e+10 3.384373e+11
3.992109e-01 8.688782e+10 3.215172e+11
4.066478e-01 8.256346e+10 3.057527e+11
4.142232e-01 7.846001e+10 2.907089e+11
4.219398e-01 7.457609e+10 2.760278e+11
4.298001e-01 7.088444e+10 2.620379e+11
4.378069e-01 6.737553e+10 2.490219e+11
4.459628e-01 6.404032e+10 2.367137e+11
4.542706e-01 6.087021e+10 2.249540e+11
4.627332e-01 5.785703e+10 2.138065e+11
4.713535e-01 5.499301e+10 2.031135e+11
4.801343e-01 5.227076e+10 1.929119e+11
4.890787e-01 4.968327e+10 1.833192e+11
4.981898e-01 4.722386e+10 1.740415e+11
5.074705e-01 4.489082e+10 1.653575e+11
5.169242e-01 4.266916e+10 1.572833e+11
5.265540e-01 4.055232e+10 1.496033e+11
5.363631e-01 3.854491e+10 1.422263e+11
5.463550e-01 3.663688e+10 1.352052e+11
5.565331e-01 3.482330e+10 1.287128e+11
5.669007e-01 3.308830e+10 1.223280e+11
5.774615e-01 3.143656e+10 1.162498e+11
5.882190e-01 2.988146e+10 1.104364e+11
5.991770e-01 2.840085e+10 1.049138e+11
6.103390e-01 2.698684e+10 9.965232e+10
6.217090e-01 2.564325e+10 9.456464e+10
6.332908e-01 2.432596e+10 8.976487e+10
6.450884e-01 2.307754e+10 8.524956e+10
6.571058e-01 2.189748e+10 8.110273e+10
6.693470e-01 2.078192e+10 7.719729e+10
6.818162e-01 1.976727e+10 7.335005e+10
6.945178e-01 1.881747e+10 6.970708e+10
7.074559e-01 1.791331e+10 6.622839e+10
7.206351e-01 1.705261e+10 6.294162e+10
7.340598e-01 1.622572e+10 5.980809e+10
7.477346e-01 1.542201e+10 5.684688e+10
7.616642e-01 1.465810e+10 5.403896e+10
7.758532e-01 1.393204e+10 5.133572e+10
7.903066e-01 1.324193e+10 4.884064e+10
8.050292e-01 1.258602e+10 4.643095e+10
8.200261e-01 1.195848e+10 4.410559e+10
8.353023e-01 1.134540e+10 4.189457e+10
8.508632e-01 1.076376e+10 3.983827e+10
8.667139e-01 1.021194e+10 3.786950e+10
8.828599e-01 9.701628e+09 3.601529e+10
8.993067e-01 9.219086e+09 3.421694e+10
9.160598e-01 8.758035e+09 3.250262e+10
9.331251e-01 8.306673e+09 3.087521e+10
9.505083e-01 7.909636e+09 2.932274e+10
9.682153e-01 7.521120e+09 2.787135e+10
9.862522e-01 7.149662e+09 2.651229e+10
1.004625e+00 6.796890e+09 2.522283e+10
1.023340e+00 6.461525e+09 2.396690e+10
1.042404e+00 6.142707e+09 2.278878e+10
1.061823e+00 5.839619e+09 2.166301e+10
1.081604e+00 5.551487e+09 2.059175e+10
1.101753e+00 5.277571e+09 1.954735e+10
1.122277e+00 5.017170e+09 1.855682e+10
1.143184e+00 4.769618e+09 1.763381e+10
1.164481e+00 4.534281e+09 1.675269e+10
1.186174e+00 4.310555e+09 1.591081e+10
1.208271e+00 4.097868e+09 1.512127e+10
1.230780e+00 3.895676e+09 1.436961e+10
1.253708e+00 3.703459e+09 1.366732e+10
1.277063e+00 3.520727e+09 1.302149e+10
1.300854e+00 3.347011e+09 1.238998e+10
1.325087e+00 3.181867e+09 1.178621e+10
1.349772e+00 3.024871e+09 1.120251e+10
1.374917e+00 2.875621e+09 1.064531e+10
1.400531e+00 2.733735e+09 1.011581e+10
1.426621e+00 2.597415e+09 9.613783e+09
1.453198e+00 2.466570e+09 9.126332e+09
1.480269e+00 2.342317e+09 8.677721e+09
1.507845e+00 2.224323e+09 8.246737e+09
1.535935e+00 2.114137e+09 7.836141e+09
1.564548e+00 2.009760e+09 7.446699e+09
1.593694e+00 1.910536e+09 7.074412e+09
1.623382e+00 1.816212e+09 6.723390e+09
1.653624e+00 1.726545e+09 6.399603e+09
1.684430e+00 1.641305e+09 6.090024e+09
1.715809e+00 1.560274e+09 5.787100e+09
1.747773e+00 1.483601e+09 5.497609e+09
1.780332e+00 1.411006e+09 5.225697e+09
1.813498e+00 1.341962e+09 4.966557e+09
1.847281e+00 1.275374e+09 4.722396e+09
1.881694e+00 1.211376e+09 4.487228e+09
1.916748e+00 1.150658e+09 4.261793e+09
1.952456e+00 1.095104e+09 4.049015e+09
1.988828e+00 1.042698e+09 3.845619e+09
2.025878e+00 9.919557e+08 3.656306e+09
2.063618e+00 9.430602e+08 3.474710e+09
2.102061e+00 8.975728e+08 3.296912e+09
2.141220e+00 8.534434e+08 3.136845e+09
2.181109e+00 8.112757e+08 2.981534e+09
2.221741e+00 7.711914e+08 2.834500e+09
2.263130e+00 7.330877e+08 2.693062e+09
2.305289e+00 6.968666e+08 2.563342e+09
2.348235e+00 6.624352e+08 2.437774e+09
2.391980e+00 6.297050e+08 2.317761e+09
2.436540e+00 5.987322e+08 2.204562e+09
2.481930e+00 5.695040e+08 2.094111e+09
2.528166e+00 5.423248e+08 1.990972e+09
2.575263e+00 5.156562e+08 1.890342e+09
2.623238e+00 4.902990e+08 1.798864e+09
2.672106e+00 4.661888e+08 1.710166e+09
2.721885e+00 4.432642e+08 1.628086e+09
2.772591e+00 4.214669e+08 1.547364e+09
2.824241e+00 4.007415e+08 1.470545e+09
2.876854e+00 3.810352e+08 1.398128e+09
2.930447e+00 3.622980e+08 1.329109e+09
2.985038e+00 3.444822e+08 1.261295e+09
3.040646e+00 3.275424e+08 1.199663e+09
3.097291e+00 3.114357e+08 1.140226e+09
3.154990e+00 2.961210e+08 1.083472e+09
3.213764e+00 2.815594e+08 1.030905e+09
3.273634e+00 2.677139e+08 9.797512e+08
3.334618e+00 2.545492e+08 9.325552e+08
3.396739e+00 2.420319e+08 8.857087e+08
3.460016e+00 2.301301e+08 8.421924e+08
3.524473e+00 2.188136e+08 8.001943e+08
3.590130e+00 2.080536e+08 7.601504e+08
3.657011e+00 1.978227e+08 7.229529e+08
3.725137e+00 1.880949e+08 6.874122e+08
3.794533e+00 1.788454e+08 6.542604e+08
3.865221e+00 1.700508e+08 6.226564e+08
3.937226e+00 1.616887e+08 5.925052e+08
4.010573e+00 1.537377e+08 5.642635e+08
4.085286e+00 1.461778e+08 5.367204e+08
4.161391e+00 1.389896e+08 5.108521e+08
4.238913e+00 1.321549e+08 4.860234e+08
4.317880e+00 1.256562e+08 4.621751e+08
4.398317e+00 1.194772e+08 4.399293e+08
4.480254e+00 1.136020e+08 4.183351e+08
4.563716e+00 1.075618e+08 3.981414e+08
4.648734e+00 1.017139e+08 3.785449e+08
4.735335e+00 9.658446e+07 3.599067e+08
4.823549e+00 9.181235e+07 3.423240e+08
4.913407e+00 8.727626e+07 3.258130e+08
5.004939e+00 8.297235e+07 3.099591e+08
5.098176e+00 7.888067e+07 2.948163e+08
5.193150e+00 7.499078e+07 2.806380e+08
5.289893e+00 7.129271e+07 2.670484e+08
5.388438e+00 6.777701e+07 2.540958e+08
5.488820e+00 6.443468e+07 2.414030e+08
5.591071e+00 6.125717e+07 2.295359e+08
5.695227e+00 5.823637e+07 2.183920e+08
5.801323e+00 5.536452e+07 2.076964e+08
5.909396e+00 5.263431e+07 1.974470e+08
6.019482e+00 5.003873e+07 1.878309e+08
6.131619e+00 4.757114e+07 1.786061e+08
6.245845e+00 4.522525e+07 1.701166e+08
6.362198e+00 4.299504e+07 1.618763e+08
6.480720e+00 4.087481e+07 1.541690e+08
6.601449e+00 3.885913e+07 1.467070e+08
6.724427e+00 3.694286e+07 1.394867e+08
6.849697e+00 3.512108e+07 1.327374e+08
6.977300e+00 3.338915e+07 1.263344e+08
7.107280e+00 3.174262e+07 1.202422e+08
7.239681e+00 3.017729e+07 1.144116e+08
7.374549e+00 2.868915e+07 1.088433e+08
7.511929e+00 2.727440e+07 1.035448e+08
7.651869e+00 2.592941e+07 9.848499e+07
7.794416e+00 2.465383e+07 9.372332e+07
7.939618e+00 2.344506e+07 8.917537e+07
8.087525e+00 2.229555e+07 8.484326e+07
8.238187e+00 2.120240e+07 8.070986e+07
8.391656e+00 2.016284e+07 7.676238e+07
8.547985e+00 1.917426e+07 7.304301e+07
8.707225e+00 1.823415e+07 6.949781e+07
8.869432e+00 1.734013e+07 6.609503e+07
9.034660e+00 1.648995e+07 6.287378e+07
9.202967e+00 1.568145e+07 5.989746e+07
9.374409e+00 1.491259e+07 5.692156e+07
9.549045e+00 1.418143e+07 5.419481e+07
9.726934e+00 1.348612e+07 5.155345e+07
9.908137e+00 1.281389e+07 4.905486e+07
1.009272e+01 1.216925e+07 4.665934e+07
1.028073e+01 1.155704e+07 4.436471e+07
1.047225e+01 1.097618e+07 4.218186e+07
1.066734e+01 1.043075e+07 4.012132e+07
1.086606e+01 9.921061e+06 3.816096e+07
1.106848e+01 9.436592e+06 3.630099e+07
1.127468e+01 8.975781e+06 3.453375e+07
1.148472e+01 8.537473e+06 3.282422e+07
1.169866e+01 8.120570e+06 3.119679e+07
1.191660e+01 7.724025e+06 2.967319e+07
1.213859e+01 7.346845e+06 2.824458e+07
1.236472e+01 6.988084e+06 2.685752e+07
1.259506e+01 6.646842e+06 2.554581e+07
1.282970e+01 6.322264e+06 2.431371e+07
1.306870e+01 6.013536e+06 2.313199e+07
1.331216e+01 5.719884e+06 2.199213e+07
1.356015e+01 5.440573e+06 2.091936e+07
1.381276e+01 5.174900e+06 1.989297e+07
1.407008e+01 4.922202e+06 1.892332e+07
1.433219e+01 4.681843e+06 1.800953e+07
1.459919e+01 4.453222e+06 1.714268e+07
1.487115e+01 4.235765e+06 1.629957e+07
1.514819e+01 4.028926e+06 1.548761e+07
1.543038e+01 3.832189e+06 1.472638e+07
1.571784e+01 3.645058e+06 1.400952e+07
1.601064e+01 3.467066e+06 1.332801e+07
1.630891e+01 3.295528e+06 1.268450e+07
1.661273e+01 3.118990e+06 1.206632e+07
1.692220e+01 2.951920e+06 1.147215e+07
1.723745e+01 2.793810e+06 1.091721e+07
1.755856e+01 2.653254e+06 1.038721e+07
1.788566e+01 2.520134e+06 9.882211e+06
1.821885e+01 2.393702e+06 9.400270e+06
1.855825e+01 2.273621e+06 8.943765e+06
1.890397e+01 2.161670e+06 8.505316e+06
1.925614e+01 2.055293e+06 8.088010e+06
1.961486e+01 1.954151e+06 7.692497e+06
1.998026e+01 1.857986e+06 7.311191e+06
2.035248e+01 1.766555e+06 6.954654e+06
2.073162e+01 1.679623e+06 6.614615e+06
2.111783e+01 1.596969e+06 6.286069e+06
2.151123e+01 1.518382e+06 5.978278e+06
2.191197e+01 1.443663e+06 5.682820e+06
2.232016e+01 1.372613e+06 5.403052e+06
2.273597e+01 1.301364e+06 5.136720e+06
2.315951e+01 1.233818e+06 4.884768e+06
2.359095e+01 1.172859e+06 4.639976e+06
2.403043e+01 1.115403e+06 4.412169e+06
2.447809e+01 1.060765e+06 4.194935e+06
2.493409e+01 1.008806e+06 3.989629e+06
2.539859e+01 9.593946e+05 3.794797e+06
2.587174e+01 9.124058e+05 3.607785e+06
2.635371e+01 8.676455e+05 3.428502e+06
2.684465e+01 8.247766e+05 3.257741e+06
2.734474e+01 7.840258e+05 3.096081e+06
2.785414e+01 7.452885e+05 2.940943e+06
2.837304e+01 7.084650e+05 2.794514e+06
2.890160e+01 6.734610e+05 2.658092e+06
2.944000e+01 6.392253e+05 2.527063e+06
2.998844e+01 6.052270e+05 2.401348e+06
3.054710e+01 5.730385e+05 2.281660e+06
3.111616e+01 5.425634e+05 2.167825e+06
3.169582e+01 5.137104e+05 2.059450e+06
3.228628e+01 4.863931e+05 1.956037e+06
3.288774e+01 4.605298e+05 1.858414e+06
3.350041e+01 4.372503e+05 1.765972e+06
3.412449e+01 4.153653e+05 1.678589e+06
3.476019e+01 3.949223e+05 1.595745e+06
3.540774e+01 3.754858e+05 1.516663e+06
3.606735e+01 3.570060e+05 1.441307e+06
3.673925e+01 3.397080e+05 1.369831e+06
3.742366e+01 3.224058e+05 1.301503e+06
3.812083e+01 3.062567e+05 1.236877e+06
3.883098e+01 2.909170e+05 1.175161e+06
3.955436e+01 2.763461e+05 1.115701e+06
4.029122e+01 2.625053e+05 1.058132e+06
4.104181e+01 2.493582e+05 1.003967e+06
4.180637e+01 2.368699e+05 9.532038e+05
4.258518e+01 2.250075e+05 9.056917e+05
4.337850e+01 2.137394e+05 8.597534e+05
4.418660e+01 2.030359e+05 8.155766e+05
4.500975e+01 1.928688e+05 7.735515e+05
4.584824e+01 1.832110e+05 7.345611e+05
4.670234e+01 1.740372e+05 6.974145e+05
4.757236e+01 1.653229e+05 6.623084e+05
4.845859e+01 1.570453e+05 6.291804e+05
4.936132e+01 1.491823e+05 5.972864e+05
5.028087e+01 1.417133e+05 5.663727e+05
5.121755e+01 1.346184e+05 5.382317e+05
5.217169e+01 1.278863e+05 5.114701e+05
5.314359e+01 1.215301e+05 4.859010e+05
5.413360e+01 1.154898e+05 4.607829e+05
5.514206e+01 1.097497e+05 4.379597e+05
5.616930e+01 1.042950e+05 4.158124e+05
5.721568e+01 9.911133e+04 3.947023e+05
5.828155e+01 9.418535e+04 3.745878e+05
5.936727e+01 8.950420e+04 3.558202e+05
6.047322e+01 8.505573e+04 3.376474e+05
6.159978e+01 8.082836e+04 3.202511e+05
6.274732e+01 7.681926e+04 3.037241e+05
6.391624e+01 7.301830e+04 2.880459e+05
6.510694e+01 6.940540e+04 2.733689e+05
6.631981e+01 6.597128e+04 2.593655e+05
6.755528e+01 6.270707e+04 2.459574e+05
6.881377e+01 5.960438e+04 2.333386e+05
7.009570e+01 5.665520e+04 2.214131e+05
7.140151e+01 5.385196e+04 2.097740e+05
7.273165e+01 5.118741e+04 1.988837e+05
7.408657e+01 4.865471e+04 1.885194e+05
7.546673e+01 4.624733e+04 1.787040e+05
7.687260e+01 4.395906e+04 1.695829e+05
7.830465e+01 4.178401e+04 1.609106e+05
7.976339e+01 3.960379e+04 1.525006e+05
8.124930e+01 3.745237e+04 1.445790e+05
8.276289e+01 3.541803e+04 1.373393e+05
8.430468e+01 3.349437e+04 1.302166e+05
8.587519e+01 3.167538e+04 1.236174e+05
8.747496e+01 2.995534e+04 1.171441e+05
8.910453e+01 2.832887e+04 1.109345e+05
9.076446e+01 2.679086e+04 1.052671e+05
9.245531e+01 2.533650e+04 9.985586e+04
9.417766e+01 2.396124e+04 9.459238e+04
9.593209e+01 2.271662e+04 8.981051e+04
9.771921e+01 2.158058e+04 8.503293e+04
9.953962e+01 2.050148e+04 8.042711e+04
1.013939e+02 1.947644e+04 7.623334e+04
1.032828e+02 1.850821e+04 7.227484e+04
1.052069e+02 1.760116e+04 6.846473e+04
1.071668e+02 1.673856e+04 6.481581e+04
1.091632e+02 1.591823e+04 6.135813e+04
1.111968e+02 1.513811e+04 5.807317e+04
1.132683e+02 1.439622e+04 5.493453e+04
1.153783e+02 1.369069e+04 5.201098e+04
1.175277e+02 1.301973e+04 4.931075e+04
1.197171e+02 1.238166e+04 4.667961e+04
1.219473e+02 1.177485e+04 4.419168e+04
1.242191e+02 1.119779e+04 4.183738e+04
1.265332e+02 1.064901e+04 3.961270e+04
1.288904e+02 1.012712e+04 3.753442e+04
1.312915e+02 9.630806e+03 3.552587e+04
1.337373e+02 9.158818e+03 3.364763e+04
1.362287e+02 8.709961e+03 3.188647e+04
1.387665e+02 8.231342e+03 3.024820e+04
1.413516e+02 7.765678e+03 2.872614e+04
1.439848e+02 7.326446e+03 2.723146e+04
1.466671e+02 6.949471e+03 2.577823e+04
1.493993e+02 6.599027e+03 2.438507e+04
1.521825e+02 6.266329e+03 2.306913e+04
1.550175e+02 5.950476e+03 2.185525e+04
1.579053e+02 5.650610e+03 2.068379e+04
1.608469e+02 5.368760e+03 1.957553e+04
1.638434e+02 5.104473e+03 1.850969e+04
1.668956e+02 4.853199e+03 1.756944e+04
1.700047e+02 4.614295e+03 1.661787e+04
1.731717e+02 4.387153e+03 1.573771e+04
1.763977e+02 4.171193e+03 1.490150e+04
1.796838e+02 3.965865e+03 1.412281e+04
1.830312e+02 3.770646e+03 1.339337e+04
1.864409e+02 3.585037e+03 1.271493e+04
1.899141e+02 3.408566e+03 1.206397e+04
1.934520e+02 3.241036e+03 1.144149e+04
1.970558e+02 3.082367e+03 1.083353e+04
2.007267e+02 2.931466e+03 1.024833e+04
2.044661e+02 2.787952e+03 9.691185e+03
2.082751e+02 2.651465e+03 9.186459e+03
2.121550e+02 2.521659e+03 8.718674e+03
2.161073e+02 2.398208e+03 8.222720e+03
2.201331e+02 2.280801e+03 7.804902e+03
2.242340e+02 2.169142e+03 7.403545e+03
2.284112e+02 2.062949e+03 7.003456e+03
2.326663e+02 1.961955e+03 6.640059e+03
2.370006e+02 1.865905e+03 6.291499e+03
2.414157e+02 1.774558e+03 5.958811e+03
2.459130e+02 1.687682e+03 5.647018e+03
2.504942e+02 1.605060e+03 5.352565e+03
2.551606e+02 1.526482e+03 5.075537e+03
2.599140e+02 1.451752e+03 4.807842e+03
2.647559e+02 1.380680e+03 4.548385e+03
2.696881e+02 1.305503e+03 4.298365e+03
2.747121e+02 1.232716e+03 4.074233e+03
2.798297e+02 1.163998e+03 3.857113e+03
2.850426e+02 1.099122e+03 3.658180e+03
2.903527e+02 1.037873e+03 3.467081e+03
2.957617e+02 9.800464e+02 3.282214e+03
3.012714e+02 9.254515e+02 3.107202e+03
3.068838e+02 8.778322e+02 2.945265e+03
3.126007e+02 8.339083e+02 2.792561e+03
3.184242e+02 7.921903e+02 2.647775e+03
3.243561e+02 7.525670e+02 2.510496e+03
3.303985e+02 7.149328e+02 2.380334e+03
3.365535e+02 6.791874e+02 2.256921e+03
3.428231e+02 6.453336e+02 2.142405e+03
3.492096e+02 6.137224e+02 2.030496e+03
3.557150e+02 5.836599e+02 1.923763e+03
3.623416e+02 5.532640e+02 1.823909e+03
3.690917e+02 5.233824e+02 1.729238e+03
3.759675e+02 4.951507e+02 1.639318e+03
3.829714e+02 4.684434e+02 1.554005e+03
3.901058e+02 4.431781e+02 1.473131e+03
3.973730e+02 4.192768e+02 1.396466e+03
4.047757e+02 3.966659e+02 1.323791e+03
4.123163e+02 3.752755e+02 1.255121e+03
4.199973e+02 3.541206e+02 1.190300e+03
4.278214e+02 3.337155e+02 1.128641e+03
4.357913e+02 3.149156e+02 1.071329e+03
4.439097e+02 2.990010e+02 1.016825e+03
4.521792e+02 2.840469e+02 9.658259e+02
4.606029e+02 2.688018e+02 9.167000e+02
4.691835e+02 2.545986e+02 8.700729e+02
4.779239e+02 2.415753e+02 8.254609e+02
4.868271e+02 2.292189e+02 7.828732e+02
4.958962e+02 2.174950e+02 7.424828e+02
5.051342e+02 2.058875e+02 7.041763e+02
5.145444e+02 1.940531e+02 6.680187e+02
5.241298e+02 1.828993e+02 6.336995e+02
5.338938e+02 1.723869e+02 6.018258e+02
5.438397e+02 1.624789e+02 5.711057e+02
5.539709e+02 1.532499e+02 5.413760e+02
5.642908e+02 1.447907e+02 5.133458e+02
5.748030e+02 1.367986e+02 4.869928e+02
5.855110e+02 1.292479e+02 4.626523e+02
5.964185e+02 1.222089e+02 4.397614e+02
6.075292e+02 1.156224e+02 4.172391e+02
6.188468e+02 1.093913e+02 3.963389e+02
6.303753e+02 1.038516e+02 3.765281e+02
6.421186e+02 9.859813e+01 3.573791e+02
6.540806e+02 9.361074e+01 3.390512e+02
6.662655e+02 8.849128e+01 3.216633e+02
6.786773e+02 8.348321e+01 3.051426e+02
6.913204e+02 7.879584e+01 2.894557e+02
7.041990e+02 7.441622e+01 2.745752e+02
7.173175e+02 7.063592e+01 2.604597e+02
7.306804e+02 6.704820e+01 2.470699e+02
7.442922e+02 6.364321e+01 2.349592e+02
7.581576e+02 6.042804e+01 2.237554e+02
7.722814e+02 5.736509e+01 2.123345e+02
7.866682e+02 5.417528e+01 2.014137e+02
8.013230e+02 5.116285e+01 1.912701e+02
8.162509e+02 4.831794e+01 1.818149e+02
8.314568e+02 4.563123e+01 1.725955e+02
8.469460e+02 4.309392e+01 1.637614e+02
8.627237e+02 4.070127e+01 1.553536e+02
8.787954e+02 3.847219e+01 1.473775e+02
8.951665e+02 3.636542e+01 1.398108e+02
9.118425e+02 3.437423e+01 1.326327e+02
9.288292e+02 3.249672e+01 1.258231e+02
9.461324e+02 3.067770e+01 1.193631e+02
9.637579e+02 2.896529e+01 1.132348e+02
9.817117e+02 2.734847e+01 1.074212e+02
1.000000e+03 2.587149e+01 1.019060e+02
