# Energy(MeV) Phi16 Phi84
5.000000e-01 1.242978e+13 1.579395e+13
5.076744e-01 1.215292e+13 1.543986e+13
5.154667e-01 1.188209e+13 1.509351e+13
5.233785e-01 1.161714e+13 1.475475e+13
5.314118e-01 1.135796e+13 1.442392e+13
5.395683e-01 1.110443e+13 1.410120e+13
5.478501e-01 1.085641e+13 1.378552e+13
5.562590e-01 1.061350e+13 1.347639e+13
5.647969e-01 1.037496e+13 1.317360e+13
5.734659e-01 1.014166e+13 1.287660e+13
5.822680e-01 9.913464e+12 1.258593e+13
5.912051e-01 9.690275e+12 1.230166e+13
6.002795e-01 9.471981e+12 1.202350e+13
6.094931e-01 9.258476e+12 1.175144e+13
6.188481e-01 9.049735e+12 1.148538e+13
6.283467e-01 8.845780e+12 1.122517e+13
6.379911e-01 8.646297e+12 1.097069e+13
6.477836e-01 8.451497e+12 1.072196e+13
6.577263e-01 8.261937e+12 1.047902e+13
6.678217e-01 8.076507e+12 1.024140e+13
6.780720e-01 7.895040e+12 1.000895e+13
6.884796e-01 7.716338e+12 9.781633e+12
6.990470e-01 7.541563e+12 9.559325e+12
7.097766e-01 7.370631e+12 9.341842e+12
7.206709e-01 7.203457e+12 9.128738e+12
7.317324e-01 7.039961e+12 8.920349e+12
7.429636e-01 6.879963e+12 8.716508e+12
7.543673e-01 6.722692e+12 8.518030e+12
7.659460e-01 6.568902e+12 8.324082e+12
7.777024e-01 6.418517e+12 8.133783e+12
7.896392e-01 6.271464e+12 7.947690e+12
8.017593e-01 6.127670e+12 7.765599e+12
8.140654e-01 5.987065e+12 7.587544e+12
8.265604e-01 5.849740e+12 7.413438e+12
8.392472e-01 5.715905e+12 7.243195e+12
8.521287e-01 5.585951e+12 7.076935e+12
8.652079e-01 5.459187e+12 6.916094e+12
8.784878e-01 5.335264e+12 6.757402e+12
8.919716e-01 5.213737e+12 6.601887e+12
9.056624e-01 5.094073e+12 6.449825e+12
9.195633e-01 4.977056e+12 6.301142e+12
9.336776e-01 4.862629e+12 6.156481e+12
9.480084e-01 4.750737e+12 6.015295e+12
9.625593e-01 4.641414e+12 5.876738e+12
9.773335e-01 4.534584e+12 5.741097e+12
9.923345e-01 4.429475e+12 5.608471e+12
1.007566e+00 4.328196e+12 5.478793e+12
1.023031e+00 4.229100e+12 5.351999e+12
1.038733e+00 4.131655e+12 5.228021e+12
1.054676e+00 4.036248e+12 5.106635e+12
1.070865e+00 3.942916e+12 4.987956e+12
1.087301e+00 3.851656e+12 4.871926e+12
1.103990e+00 3.762450e+12 4.758486e+12
1.120935e+00 3.675763e+12 4.647581e+12
1.138140e+00 3.590990e+12 4.539155e+12
1.155609e+00 3.507997e+12 4.433154e+12
1.173346e+00 3.426568e+12 4.329526e+12
1.191356e+00 3.346948e+12 4.228217e+12
1.209642e+00 3.269099e+12 4.129321e+12
1.228209e+00 3.192983e+12 4.032884e+12
1.247060e+00 3.118561e+12 3.938602e+12
1.266201e+00 3.045798e+12 3.846028e+12
1.285636e+00 2.974657e+12 3.755481e+12
1.305369e+00 2.905103e+12 3.666969e+12
1.325405e+00 2.837102e+12 3.580880e+12
1.345748e+00 2.770620e+12 3.497250e+12
1.366404e+00 2.705624e+12 3.415482e+12
1.387377e+00 2.642081e+12 3.335535e+12
1.408672e+00 2.579961e+12 3.257291e+12
1.430293e+00 2.519232e+12 3.180566e+12
1.452247e+00 2.459864e+12 3.105564e+12
1.474537e+00 2.401828e+12 3.032246e+12
1.497169e+00 2.345094e+12 2.960577e+12
1.520149e+00 2.289635e+12 2.890520e+12
1.543482e+00 2.235422e+12 2.822040e+12
1.567172e+00 2.182303e+12 2.755034e+12
1.591227e+00 2.129939e+12 2.689493e+12
1.615650e+00 2.078786e+12 2.625434e+12
1.640449e+00 2.028800e+12 2.562823e+12
1.665628e+00 1.979956e+12 2.501631e+12
1.691193e+00 1.932227e+12 2.441825e+12
1.717151e+00 1.885590e+12 2.383375e+12
1.743508e+00 1.840285e+12 2.325829e+12
1.770268e+00 1.796235e+12 2.269879e+12
1.797440e+00 1.753248e+12 2.215179e+12
1.825029e+00 1.711263e+12 2.161684e+12
1.853041e+00 1.670228e+12 2.109410e+12
1.881483e+00 1.630122e+12 2.058330e+12
1.910362e+00 1.590925e+12 2.008418e+12
1.939683e+00 1.552618e+12 1.959649e+12
1.969455e+00 1.515181e+12 1.912047e+12
1.999684e+00 1.478595e+12 1.865902e+12
2.030377e+00 1.442841e+12 1.820807e+12
2.061541e+00 1.407902e+12 1.776728e+12
2.093184e+00 1.373759e+12 1.733637e+12
2.125312e+00 1.340395e+12 1.691530e+12
2.157933e+00 1.307595e+12 1.650384e+12
2.191055e+00 1.275538e+12 1.610163e+12
2.224685e+00 1.244218e+12 1.570548e+12
2.258831e+00 1.213621e+12 1.531773e+12
2.293502e+00 1.183729e+12 1.493884e+12
2.328704e+00 1.154527e+12 1.456842e+12
2.364447e+00 1.126000e+12 1.420687e+12
2.400739e+00 1.098133e+12 1.385384e+12
2.437588e+00 1.070930e+12 1.350701e+12
2.475002e+00 1.044493e+12 1.316822e+12
2.512990e+00 1.018730e+12 1.283825e+12
2.551562e+00 9.935686e+11 1.251603e+12
2.590725e+00 9.689329e+11 1.220138e+12
2.630490e+00 9.446204e+11 1.189413e+12
2.670865e+00 9.208840e+11 1.159411e+12
2.711860e+00 8.978578e+11 1.130117e+12
2.753484e+00 8.753689e+11 1.101514e+12
2.795747e+00 8.534220e+11 1.073668e+12
2.838658e+00 8.320152e+11 1.046634e+12
2.882229e+00 8.111085e+11 1.020236e+12
2.926468e+00 7.906909e+11 9.944602e+11
2.971386e+00 7.706931e+11 9.692919e+11
3.016993e+00 7.511006e+11 9.446515e+11
3.063300e+00 7.320962e+11 9.205005e+11
3.110319e+00 7.132779e+11 8.969147e+11
3.158058e+00 6.949548e+11 8.738903e+11
3.206531e+00 6.771023e+11 8.515153e+11
3.255748e+00 6.597051e+11 8.297139e+11
3.305720e+00 6.427580e+11 8.083449e+11
3.356459e+00 6.263343e+11 7.874863e+11
3.407977e+00 6.103209e+11 7.671072e+11
3.460285e+00 5.946877e+11 7.474045e+11
3.513397e+00 5.794262e+11 7.281448e+11
3.567323e+00 5.643784e+11 7.092331e+11
3.622078e+00 5.496546e+11 6.907768e+11
3.677673e+00 5.353341e+11 6.727653e+11
3.734121e+00 5.213133e+11 6.551724e+11
3.791435e+00 5.076837e+11 6.379849e+11
3.849630e+00 4.944416e+11 6.212144e+11
3.908717e+00 4.815185e+11 6.048515e+11
3.968711e+00 4.689069e+11 5.889390e+11
4.029627e+00 4.566113e+11 5.734204e+11
4.091477e+00 4.446213e+11 5.582784e+11
4.154276e+00 4.329215e+11 5.435046e+11
4.218040e+00 4.215054e+11 5.290685e+11
4.282782e+00 4.103664e+11 5.149424e+11
4.348518e+00 3.994984e+11 5.011636e+11
4.415263e+00 3.888951e+11 4.877242e+11
4.483032e+00 3.785507e+11 4.746165e+11
4.551842e+00 3.684591e+11 4.618327e+11
4.621707e+00 3.586146e+11 4.494420e+11
4.692645e+00 3.490117e+11 4.374612e+11
4.764672e+00 3.395369e+11 4.257735e+11
4.837804e+00 3.302863e+11 4.143722e+11
4.912059e+00 3.213575e+11 4.031663e+11
4.987454e+00 3.126560e+11 3.922597e+11
5.064006e+00 3.041706e+11 3.815807e+11
5.141732e+00 2.958962e+11 3.711409e+11
5.220652e+00 2.877810e+11 3.610566e+11
5.300783e+00 2.798553e+11 3.512823e+11
5.382144e+00 2.721412e+11 3.417499e+11
5.464754e+00 2.646109e+11 3.324539e+11
5.548632e+00 2.572567e+11 3.233163e+11
5.633797e+00 2.500891e+11 3.143408e+11
5.720270e+00 2.431037e+11 3.055836e+11
5.808069e+00 2.363472e+11 2.970398e+11
5.897217e+00 2.297928e+11 2.887134e+11
5.987732e+00 2.233643e+11 2.806913e+11
6.079637e+00 2.170917e+11 2.729298e+11
6.172953e+00 2.109796e+11 2.653628e+11
6.267701e+00 2.050430e+11 2.578968e+11
6.363903e+00 1.992860e+11 2.506219e+11
6.461581e+00 1.936706e+11 2.435833e+11
6.560759e+00 1.881453e+11 2.367268e+11
6.661460e+00 1.827632e+11 2.300461e+11
6.763706e+00 1.775210e+11 2.234811e+11
6.867521e+00 1.724176e+11 2.170720e+11
6.972929e+00 1.674541e+11 2.108236e+11
7.079956e+00 1.626357e+11 2.047385e+11
7.188625e+00 1.579674e+11 1.988129e+11
7.298963e+00 1.534208e+11 1.930839e+11
7.410994e+00 1.489931e+11 1.874950e+11
7.524744e+00 1.446813e+11 1.820769e+11
7.640240e+00 1.404827e+11 1.768068e+11
7.757509e+00 1.363947e+11 1.716747e+11
7.876578e+00 1.324144e+11 1.666775e+11
7.997475e+00 1.285420e+11 1.618119e+11
8.120227e+00 1.247745e+11 1.570748e+11
8.244863e+00 1.210562e+11 1.524631e+11
8.371413e+00 1.174169e+11 1.479737e+11
8.499905e+00 1.138765e+11 1.436027e+11
8.630369e+00 1.104325e+11 1.393479e+11
8.762835e+00 1.071503e+11 1.351939e+11
8.897335e+00 1.039988e+11 1.311540e+11
9.033899e+00 1.008664e+11 1.271997e+11
9.172559e+00 9.781839e+10 1.233862e+11
9.313347e+00 9.487232e+10 1.196841e+11
9.456297e+00 9.200630e+10 1.160822e+11
9.601440e+00 8.921835e+10 1.125780e+11
9.748811e+00 8.650656e+10 1.091427e+11
9.898445e+00 8.386905e+10 1.057665e+11
1.005037e+01 8.130399e+10 1.025158e+11
1.020464e+01 7.880959e+10 9.938292e+10
1.036127e+01 7.638583e+10 9.633558e+10
1.052030e+01 7.401268e+10 9.337233e+10
1.068177e+01 7.170595e+10 9.049107e+10
1.084573e+01 6.946395e+10 8.768977e+10
1.101220e+01 6.728524e+10 8.496630e+10
1.118122e+01 6.516813e+10 8.231871e+10
1.135284e+01 6.311096e+10 7.974522e+10
1.152709e+01 6.111220e+10 7.724008e+10
1.170402e+01 5.916195e+10 7.480006e+10
1.188367e+01 5.726080e+10 7.241034e+10
1.206607e+01 5.541448e+10 7.008476e+10
1.225127e+01 5.362232e+10 6.782618e+10
1.243931e+01 5.189959e+10 6.563287e+10
1.263024e+01 5.022100e+10 6.350590e+10
1.282410e+01 4.860039e+10 6.146038e+10
1.302094e+01 4.702688e+10 5.946983e+10
1.322079e+01 4.549901e+10 5.754898e+10
1.342372e+01 4.401739e+10 5.565842e+10
1.362976e+01 4.257629e+10 5.381801e+10
1.383896e+01 4.116997e+10 5.203133e+10
1.405137e+01 3.980455e+10 5.031868e+10
1.426704e+01 3.847972e+10 4.865779e+10
1.448602e+01 3.719441e+10 4.703207e+10
1.470837e+01 3.594835e+10 4.545501e+10
1.493413e+01 3.474074e+10 4.392531e+10
1.516335e+01 3.356947e+10 4.244170e+10
1.539609e+01 3.243357e+10 4.100296e+10
1.563240e+01 3.133013e+10 3.960303e+10
1.587234e+01 3.025828e+10 3.825980e+10
1.611596e+01 2.921409e+10 3.695844e+10
1.636332e+01 2.819634e+10 3.569108e+10
1.661448e+01 2.721086e+10 3.443454e+10
1.686950e+01 2.626316e+10 3.321758e+10
1.712842e+01 2.535663e+10 3.206419e+10
1.739133e+01 2.447803e+10 3.095550e+10
1.765826e+01 2.362777e+10 2.987952e+10
1.792930e+01 2.279278e+10 2.882439e+10
1.820449e+01 2.198364e+10 2.779671e+10
1.848391e+01 2.120014e+10 2.679916e+10
1.876762e+01 2.044158e+10 2.584548e+10
1.905568e+01 1.970726e+10 2.492351e+10
1.934816e+01 1.899411e+10 2.401909e+10
1.964514e+01 1.830672e+10 2.314558e+10
1.994667e+01 1.764072e+10 2.230553e+10
2.025283e+01 1.699588e+10 2.149272e+10
2.056368e+01 1.637293e+10 2.070757e+10
2.087931e+01 1.577061e+10 1.995316e+10
2.119979e+01 1.519098e+10 1.922328e+10
2.152518e+01 1.463035e+10 1.851240e+10
2.185557e+01 1.408818e+10 1.782324e+10
2.219102e+01 1.356393e+10 1.716771e+10
2.253163e+01 1.305709e+10 1.653666e+10
2.287747e+01 1.256492e+10 1.592470e+10
2.322861e+01 1.208878e+10 1.532814e+10
2.358514e+01 1.162512e+10 1.474675e+10
2.394715e+01 1.117732e+10 1.418376e+10
2.431471e+01 1.074491e+10 1.363955e+10
2.468791e+01 1.032742e+10 1.311906e+10
2.506685e+01 9.924450e+09 1.261834e+10
2.545159e+01 9.539065e+09 1.213010e+10
2.584225e+01 9.168621e+09 1.165569e+10
2.623890e+01 8.811173e+09 1.119751e+10
2.664163e+01 8.466885e+09 1.075940e+10
2.705055e+01 8.135023e+09 1.033765e+10
2.746575e+01 7.813717e+09 9.924607e+09
2.788732e+01 7.504253e+09 9.531468e+09
2.831535e+01 7.204268e+09 9.153021e+09
2.874996e+01 6.914606e+09 8.789328e+09
2.919124e+01 6.637460e+09 8.442258e+09
2.963930e+01 6.368698e+09 8.107405e+09
3.009423e+01 6.109246e+09 7.783685e+09
3.055614e+01 5.859515e+09 7.464568e+09
3.102514e+01 5.620724e+09 7.154613e+09
3.150134e+01 5.390779e+09 6.860422e+09
3.198485e+01 5.169214e+09 6.577552e+09
3.247578e+01 4.954465e+09 6.304637e+09
3.297425e+01 4.746771e+09 6.038674e+09
3.348037e+01 4.547926e+09 5.784868e+09
3.399425e+01 4.356789e+09 5.541499e+09
3.451603e+01 4.172008e+09 5.307009e+09
3.504581e+01 3.992576e+09 5.081508e+09
3.558372e+01 3.821462e+09 4.864767e+09
3.612989e+01 3.656977e+09 4.657808e+09
3.668444e+01 3.498327e+09 4.457961e+09
3.724751e+01 3.345851e+09 4.265670e+09
3.781922e+01 3.200118e+09 4.080016e+09
3.839970e+01 3.059505e+09 3.901085e+09
3.898909e+01 2.923010e+09 3.729279e+09
3.958753e+01 2.794693e+09 3.563402e+09
4.019515e+01 2.670654e+09 3.404379e+09
4.081210e+01 2.549660e+09 3.251575e+09
4.143852e+01 2.434745e+09 3.105325e+09
4.207456e+01 2.324507e+09 2.965421e+09
4.272035e+01 2.219173e+09 2.830051e+09
4.337606e+01 2.118918e+09 2.701790e+09
4.404184e+01 2.022850e+09 2.579206e+09
4.471783e+01 1.929162e+09 2.461363e+09
4.540420e+01 1.839355e+09 2.347631e+09
4.610110e+01 1.753287e+09 2.238473e+09
4.680870e+01 1.670821e+09 2.133939e+09
4.752716e+01 1.591929e+09 2.034031e+09
4.825665e+01 1.516528e+09 1.937638e+09
4.899734e+01 1.444008e+09 1.845553e+09
4.974939e+01 1.374455e+09 1.757558e+09
5.051299e+01 1.308458e+09 1.673206e+09
5.128830e+01 1.245368e+09 1.592347e+09
5.207552e+01 1.184705e+09 1.514804e+09
5.287482e+01 1.127213e+09 1.440760e+09
5.368639e+01 1.071793e+09 1.370431e+09
5.451042e+01 1.018805e+09 1.302967e+09
5.534709e+01 9.681832e+08 1.238750e+09
5.619661e+01 9.198145e+08 1.177110e+09
5.705916e+01 8.736112e+08 1.118178e+09
5.793495e+01 8.294189e+08 1.061944e+09
5.882419e+01 7.870596e+08 1.008589e+09
5.972707e+01 7.467037e+08 9.576477e+08
6.064382e+01 7.082039e+08 9.088108e+08
6.157463e+01 6.714852e+08 8.615481e+08
6.251973e+01 6.364750e+08 8.175582e+08
6.347934e+01 6.033811e+08 7.753216e+08
6.445368e+01 5.718656e+08 7.345487e+08
6.544297e+01 5.414779e+08 6.956250e+08
6.644744e+01 5.125434e+08 6.586740e+08
6.746734e+01 4.851819e+08 6.237401e+08
6.850288e+01 4.593567e+08 5.907287e+08
6.955433e+01 4.347666e+08 5.592128e+08
7.062191e+01 4.113421e+08 5.292075e+08
7.170587e+01 3.887518e+08 5.004169e+08
7.280648e+01 3.675136e+08 4.730057e+08
7.392398e+01 3.471385e+08 4.468812e+08
7.505862e+01 3.279236e+08 4.220264e+08
7.621069e+01 3.096658e+08 3.985331e+08
7.738044e+01 2.923483e+08 3.763649e+08
7.856814e+01 2.758178e+08 3.552397e+08
7.977407e+01 2.599656e+08 3.350214e+08
8.099851e+01 2.451347e+08 3.160506e+08
8.224175e+01 2.309323e+08 2.978777e+08
8.350407e+01 2.175012e+08 2.808043e+08
8.478576e+01 2.046208e+08 2.646318e+08
8.608713e+01 1.926289e+08 2.493030e+08
8.740847e+01 1.813365e+08 2.347184e+08
8.875009e+01 1.705407e+08 2.208916e+08
9.011230e+01 1.602668e+08 2.078063e+08
9.149543e+01 1.506757e+08 1.955224e+08
9.289978e+01 1.415845e+08 1.838391e+08
9.432568e+01 1.329270e+08 1.727093e+08
9.577348e+01 1.248211e+08 1.622817e+08
9.724349e+01 1.171379e+08 1.523671e+08
9.873607e+01 1.098249e+08 1.430264e+08
1.002516e+02 1.029897e+08 1.342181e+08
1.017903e+02 9.654174e+07 1.258959e+08
1.033527e+02 9.045469e+07 1.179414e+08
1.049390e+02 8.467962e+07 1.105816e+08
1.065497e+02 7.923104e+07 1.035829e+08
1.081851e+02 7.378604e+07 9.695088e+07
1.098457e+02 6.886703e+07 9.069023e+07
1.115317e+02 6.427976e+07 8.477533e+07
1.132435e+02 5.998844e+07 7.926064e+07
1.149817e+02 5.601480e+07 7.405627e+07
1.167465e+02 5.222360e+07 6.914409e+07
1.185385e+02 4.864766e+07 6.449178e+07
1.203579e+02 4.535900e+07 6.011933e+07
1.222053e+02 4.217537e+07 5.603780e+07
1.240810e+02 3.918103e+07 5.218559e+07
1.259855e+02 3.642290e+07 4.858637e+07
1.279192e+02 3.380721e+07 4.521488e+07
1.298826e+02 3.133405e+07 4.201692e+07
1.318762e+02 2.907860e+07 3.906185e+07
1.339003e+02 2.698336e+07 3.624102e+07
1.359555e+02 2.494942e+07 3.356162e+07
1.380423e+02 2.311692e+07 3.108365e+07
1.401611e+02 2.143027e+07 2.876534e+07
1.423124e+02 1.986461e+07 2.660128e+07
1.444968e+02 1.837866e+07 2.464449e+07
1.467146e+02 1.698671e+07 2.276845e+07
1.489665e+02 1.566957e+07 2.103843e+07
1.512530e+02 1.445751e+07 1.941814e+07
1.535746e+02 1.337608e+07 1.792553e+07
1.559317e+02 1.233849e+07 1.657823e+07
1.583251e+02 1.139042e+07 1.531763e+07
1.607552e+02 1.049431e+07 1.415466e+07
1.632226e+02 9.709929e+06 1.307211e+07
1.657279e+02 8.967141e+06 1.207676e+07
1.682717e+02 8.292349e+06 1.113238e+07
1.708544e+02 7.651078e+06 1.026341e+07
1.734769e+02 7.066214e+06 9.472463e+06
1.761395e+02 6.520162e+06 8.761391e+06
1.788431e+02 6.012877e+06 8.079363e+06
1.815881e+02 5.536215e+06 7.461624e+06
1.843753e+02 5.108077e+06 6.891208e+06
1.872053e+02 4.721238e+06 6.355620e+06
1.900786e+02 4.357701e+06 5.870171e+06
1.929961e+02 4.020098e+06 5.429930e+06
1.959584e+02 3.706278e+06 5.019753e+06
1.989662e+02 3.414438e+06 4.640344e+06
2.020201e+02 3.142764e+06 4.283188e+06
2.051208e+02 2.898661e+06 3.956106e+06
2.082692e+02 2.664905e+06 3.651214e+06
2.114659e+02 2.456616e+06 3.367363e+06
2.147117e+02 2.263104e+06 3.102362e+06
2.180073e+02 2.082737e+06 2.863472e+06
2.213534e+02 1.920440e+06 2.644532e+06
2.247509e+02 1.766507e+06 2.445369e+06
2.282006e+02 1.626237e+06 2.261196e+06
2.317032e+02 1.497639e+06 2.086674e+06
2.352596e+02 1.378132e+06 1.928813e+06
2.388706e+02 1.268597e+06 1.779954e+06
2.425370e+02 1.167571e+06 1.640869e+06
2.462597e+02 1.074420e+06 1.513458e+06
2.500395e+02 9.893043e+05 1.395723e+06
2.538773e+02 9.092171e+05 1.286346e+06
2.577740e+02 8.355146e+05 1.187391e+06
2.617306e+02 7.684529e+05 1.096840e+06
2.657478e+02 7.056333e+05 1.012914e+06
2.698268e+02 6.481339e+05 9.355827e+05
2.739683e+02 5.955618e+05 8.651135e+05
2.781734e+02 5.468784e+05 7.981537e+05
2.824430e+02 5.015923e+05 7.365225e+05
2.867782e+02 4.603527e+05 6.792949e+05
2.911799e+02 4.226023e+05 6.280747e+05
2.956492e+02 3.881107e+05 5.801558e+05
3.001871e+02 3.562522e+05 5.358913e+05
3.047946e+02 3.268051e+05 4.946538e+05
3.094729e+02 2.998072e+05 4.570955e+05
3.142230e+02 2.757794e+05 4.219926e+05
3.190459e+02 2.534106e+05 3.893636e+05
3.239429e+02 2.325462e+05 3.600677e+05
3.289151e+02 2.136272e+05 3.321367e+05
3.339636e+02 1.961854e+05 3.067006e+05
3.390895e+02 1.799101e+05 2.824761e+05
3.442942e+02 1.650777e+05 2.606246e+05
3.495787e+02 1.513726e+05 2.402409e+05
3.549443e+02 1.387141e+05 2.208041e+05
3.603923e+02 1.271022e+05 2.031499e+05
3.659239e+02 1.165040e+05 1.874738e+05
3.715405e+02 1.065300e+05 1.728337e+05
3.772432e+02 9.739649e+04 1.593369e+05
3.830334e+02 8.921763e+04 1.469311e+05
3.889126e+02 8.200510e+04 1.354989e+05
3.948819e+02 7.531513e+04 1.248452e+05
4.009429e+02 6.888567e+04 1.149477e+05
4.070970e+02 6.301356e+04 1.058720e+05
4.133454e+02 5.755296e+04 9.760051e+04
4.196898e+02 5.283474e+04 8.992586e+04
4.261316e+02 4.847464e+04 8.279993e+04
4.326722e+02 4.425653e+04 7.632613e+04
4.393133e+02 4.040708e+04 7.029767e+04
4.460562e+02 3.694272e+04 6.475527e+04
4.529027e+02 3.382037e+04 5.958037e+04
4.598542e+02 3.095738e+04 5.482488e+04
4.669125e+02 2.831230e+04 5.039984e+04
4.740790e+02 2.589267e+04 4.636753e+04
4.813556e+02 2.367648e+04 4.266349e+04
4.887439e+02 2.163449e+04 3.923721e+04
4.962456e+02 1.974763e+04 3.606898e+04
5.038624e+02 1.804660e+04 3.318583e+04
5.115961e+02 1.649318e+04 3.056558e+04
5.194485e+02 1.504019e+04 2.817788e+04
5.274215e+02 1.374576e+04 2.592221e+04
5.355168e+02 1.256341e+04 2.384478e+04
5.437364e+02 1.147362e+04 2.192355e+04
5.520821e+02 1.048575e+04 2.015428e+04
5.605559e+02 9.597583e+03 1.852517e+04
5.691598e+02 8.783942e+03 1.702531e+04
5.778958e+02 8.009709e+03 1.564064e+04
5.867659e+02 7.307090e+03 1.434662e+04
5.957720e+02 6.671134e+03 1.319963e+04
6.049165e+02 6.096054e+03 1.211194e+04
6.142013e+02 5.564336e+03 1.112888e+04
6.236286e+02 5.073171e+03 1.022213e+04
6.332005e+02 4.620073e+03 9.385188e+03
6.429195e+02 4.206715e+03 8.615437e+03
6.527876e+02 3.829780e+03 7.907587e+03
6.628071e+02 3.486784e+03 7.255084e+03
6.729804e+02 3.171837e+03 6.659624e+03
6.833099e+02 2.888761e+03 6.115994e+03
6.937980e+02 2.632997e+03 5.617968e+03
7.044470e+02 2.400356e+03 5.160398e+03
7.152595e+02 2.183019e+03 4.734323e+03
7.262379e+02 1.985429e+03 4.342788e+03
7.373848e+02 1.806574e+03 3.983875e+03
7.487028e+02 1.641557e+03 3.654443e+03
7.601946e+02 1.497228e+03 3.354454e+03
7.718627e+02 1.364315e+03 3.084549e+03
7.837099e+02 1.239388e+03 2.822022e+03
7.957390e+02 1.124088e+03 2.584890e+03
8.079527e+02 1.019681e+03 2.368286e+03
8.203539e+02 9.272226e+02 2.166377e+03
8.329454e+02 8.433916e+02 1.984614e+03
8.457301e+02 7.666008e+02 1.814937e+03
8.587111e+02 6.969283e+02 1.661763e+03
8.718914e+02 6.320402e+02 1.523035e+03
8.852739e+02 5.741149e+02 1.396135e+03
8.988619e+02 5.218162e+02 1.279024e+03
9.126584e+02 4.741864e+02 1.170836e+03
9.266667e+02 4.307937e+02 1.070754e+03
9.408900e+02 3.907311e+02 9.796622e+02
9.553316e+02 3.533905e+02 8.961518e+02
9.699948e+02 3.194018e+02 8.196055e+02
9.848832e+02 2.887188e+02 7.494552e+02
1.000000e+03 2.616841e+02 6.851781e+02
