# Energy(MeV) Fluence(cm^-2 MeV^-1)
5.000000e-02 8.069332e+11
5.100225e-02 7.872009e+11
5.202458e-02 7.681407e+11
5.306741e-02 7.489638e+11
5.413114e-02 7.298989e+11
5.521620e-02 7.114465e+11
5.632300e-02 6.933960e+11
5.745199e-02 6.761426e+11
5.860361e-02 6.593090e+11
5.977832e-02 6.426187e+11
6.097657e-02 6.261799e+11
6.219884e-02 6.099221e+11
6.344561e-02 5.947035e+11
6.471737e-02 5.798434e+11
6.601463e-02 5.652628e+11
6.733789e-02 5.505623e+11
6.868767e-02 5.365683e+11
7.006451e-02 5.235399e+11
7.146895e-02 5.102315e+11
7.290154e-02 4.970245e+11
7.436284e-02 4.844762e+11
7.585344e-02 4.721451e+11
7.737392e-02 4.600595e+11
7.892487e-02 4.480440e+11
8.050691e-02 4.367163e+11
8.212067e-02 4.256776e+11
8.376677e-02 4.149441e+11
8.544587e-02 4.041176e+11
8.715862e-02 3.942972e+11
8.890571e-02 3.847359e+11
9.068782e-02 3.752389e+11
9.250565e-02 3.659488e+11
9.435992e-02 3.566868e+11
9.625136e-02 3.477177e+11
9.818071e-02 3.389455e+11
1.001487e-01 3.304107e+11
1.021562e-01 3.219902e+11
1.042039e-01 3.138316e+11
1.062927e-01 3.057565e+11
1.084233e-01 2.983015e+11
1.105966e-01 2.909263e+11
1.128135e-01 2.837140e+11
1.150749e-01 2.763919e+11
1.173816e-01 2.695266e+11
1.197345e-01 2.626502e+11
1.221345e-01 2.563409e+11
1.245827e-01 2.499230e+11
1.270800e-01 2.438205e+11
1.296273e-01 2.378634e+11
1.322256e-01 2.318896e+11
1.348761e-01 2.260275e+11
1.375797e-01 2.203414e+11
1.403374e-01 2.148723e+11
1.431505e-01 2.094390e+11
1.460199e-01 2.040093e+11
1.489469e-01 1.988334e+11
1.519325e-01 1.936422e+11
1.549780e-01 1.885149e+11
1.580845e-01 1.836888e+11
1.612533e-01 1.792365e+11
1.644856e-01 1.748751e+11
1.677827e-01 1.705633e+11
1.711459e-01 1.660799e+11
1.745765e-01 1.616948e+11
1.780759e-01 1.577715e+11
1.816454e-01 1.535366e+11
1.852865e-01 1.495092e+11
1.890005e-01 1.456800e+11
1.927890e-01 1.419847e+11
1.966535e-01 1.383810e+11
2.005954e-01 1.349209e+11
2.046163e-01 1.314816e+11
2.087178e-01 1.279740e+11
2.129015e-01 1.248798e+11
2.171691e-01 1.218487e+11
2.215223e-01 1.186522e+11
2.259627e-01 1.155607e+11
2.304921e-01 1.126302e+11
2.351123e-01 1.098219e+11
2.398251e-01 1.070245e+11
2.446324e-01 1.043829e+11
2.495360e-01 1.018102e+11
2.545379e-01 9.919091e+10
2.596401e-01 9.667306e+10
2.648446e-01 9.426353e+10
2.701534e-01 9.187888e+10
2.755686e-01 8.951641e+10
2.810923e-01 8.716832e+10
2.867268e-01 8.491664e+10
2.924742e-01 8.272812e+10
2.983368e-01 8.063847e+10
3.043170e-01 7.844264e+10
3.104170e-01 7.650687e+10
3.166393e-01 7.456506e+10
3.229863e-01 7.268061e+10
3.294605e-01 7.087321e+10
3.360645e-01 6.909247e+10
3.428009e-01 6.735653e+10
3.496723e-01 6.557553e+10
3.566815e-01 6.391573e+10
3.638311e-01 6.228179e+10
3.711241e-01 6.068787e+10
3.785633e-01 5.913326e+10
3.861515e-01 5.762147e+10
3.938919e-01 5.611027e+10
4.017874e-01 5.467396e+10
4.098412e-01 5.326030e+10
4.180565e-01 5.186266e+10
4.264364e-01 5.051478e+10
4.349843e-01 4.919142e+10
4.437035e-01 4.789858e+10
4.525975e-01 4.661069e+10
4.616698e-01 4.538973e+10
4.709239e-01 4.419879e+10
4.803635e-01 4.304256e+10
4.899924e-01 4.192463e+10
4.998143e-01 4.084741e+10
5.098330e-01 3.978364e+10
5.200526e-01 3.873897e+10
5.304770e-01 3.773176e+10
5.411103e-01 3.676967e+10
5.519569e-01 3.580206e+10
5.630208e-01 3.488078e+10
5.743065e-01 3.398837e+10
5.858184e-01 3.312571e+10
5.975611e-01 3.225038e+10
6.095392e-01 3.141438e+10
6.217573e-01 3.061685e+10
6.342204e-01 2.982196e+10
6.469333e-01 2.901490e+10
6.599011e-01 2.825289e+10
6.731287e-01 2.751692e+10
6.866215e-01 2.679712e+10
7.003848e-01 2.609876e+10
7.144240e-01 2.537516e+10
7.287445e-01 2.471927e+10
7.433522e-01 2.406670e+10
7.582526e-01 2.343260e+10
7.734517e-01 2.279730e+10
7.889555e-01 2.218538e+10
8.047701e-01 2.160531e+10
8.209016e-01 2.105309e+10
8.373565e-01 2.049513e+10
8.541413e-01 1.994468e+10
8.712625e-01 1.940760e+10
8.887268e-01 1.888852e+10
9.065413e-01 1.837665e+10
9.247129e-01 1.789522e+10
9.432487e-01 1.743473e+10
9.621560e-01 1.697445e+10
9.814423e-01 1.652155e+10
1.001115e+00 1.607254e+10
1.021183e+00 1.564298e+10
1.041652e+00 1.521122e+10
1.062532e+00 1.479544e+10
1.083830e+00 1.438137e+10
1.105556e+00 1.399132e+10
1.127716e+00 1.361071e+10
1.150321e+00 1.323861e+10
1.173379e+00 1.287208e+10
1.196900e+00 1.251953e+10
1.220892e+00 1.216669e+10
1.245364e+00 1.183882e+10
1.270327e+00 1.152288e+10
1.295791e+00 1.121399e+10
1.321765e+00 1.090484e+10
1.348260e+00 1.060356e+10
1.375286e+00 1.028940e+10
1.402853e+00 9.993556e+09
1.430973e+00 9.728762e+09
1.459657e+00 9.464738e+09
1.488916e+00 9.210851e+09
1.518761e+00 8.962693e+09
1.549204e+00 8.718263e+09
1.580258e+00 8.471207e+09
1.611934e+00 8.237117e+09
1.644245e+00 8.008371e+09
1.677204e+00 7.785337e+09
1.710823e+00 7.568632e+09
1.745117e+00 7.360775e+09
1.780097e+00 7.152170e+09
1.815779e+00 6.952135e+09
1.852176e+00 6.749980e+09
1.889303e+00 6.556534e+09
1.927174e+00 6.365116e+09
1.965804e+00 6.181545e+09
2.005209e+00 6.000241e+09
2.045403e+00 5.828844e+09
2.086403e+00 5.652340e+09
2.128224e+00 5.489403e+09
2.170885e+00 5.336488e+09
2.214400e+00 5.181259e+09
2.258787e+00 5.033493e+09
2.304064e+00 4.890690e+09
2.350249e+00 4.749410e+09
2.397360e+00 4.612276e+09
2.445415e+00 4.477924e+09
2.494433e+00 4.346695e+09
2.544434e+00 4.219736e+09
2.595437e+00 4.094924e+09
2.647462e+00 3.970641e+09
2.700530e+00 3.847119e+09
2.754662e+00 3.733044e+09
2.809879e+00 3.621367e+09
2.866203e+00 3.514988e+09
2.923656e+00 3.413664e+09
2.982260e+00 3.309256e+09
3.042039e+00 3.208865e+09
3.103017e+00 3.107656e+09
3.165216e+00 3.012032e+09
3.228663e+00 2.921168e+09
3.293381e+00 2.833779e+09
3.359397e+00 2.740502e+09
3.426736e+00 2.654162e+09
3.495424e+00 2.570611e+09
3.565490e+00 2.490155e+09
3.636960e+00 2.413729e+09
3.709862e+00 2.333794e+09
3.784226e+00 2.262994e+09
3.860081e+00 2.193028e+09
3.937456e+00 2.120587e+09
4.016382e+00 2.052766e+09
4.096890e+00 1.991249e+09
4.179012e+00 1.926871e+09
4.262780e+00 1.868758e+09
4.348227e+00 1.808552e+09
4.435387e+00 1.749917e+09
4.524294e+00 1.694003e+09
4.614983e+00 1.640195e+09
4.707490e+00 1.588133e+09
4.801851e+00 1.536666e+09
4.898104e+00 1.486768e+09
4.996286e+00 1.438941e+09
5.096436e+00 1.391427e+09
5.198594e+00 1.346806e+09
5.302799e+00 1.300362e+09
5.409093e+00 1.257116e+09
5.517518e+00 1.215213e+09
5.628116e+00 1.172209e+09
5.740932e+00 1.132153e+09
5.856008e+00 1.093506e+09
5.973391e+00 1.056477e+09
6.093127e+00 1.019581e+09
6.215264e+00 9.845642e+08
6.339848e+00 9.494819e+08
6.466930e+00 9.163204e+08
6.596559e+00 8.853029e+08
6.728787e+00 8.540599e+08
6.863665e+00 8.237598e+08
7.001246e+00 7.925915e+08
7.141586e+00 7.637490e+08
7.284738e+00 7.356941e+08
7.430760e+00 7.080983e+08
7.579709e+00 6.825863e+08
7.731644e+00 6.575919e+08
7.886624e+00 6.329118e+08
8.044711e+00 6.097865e+08
8.205967e+00 5.868606e+08
8.370455e+00 5.649853e+08
8.538240e+00 5.436111e+08
8.709388e+00 5.238334e+08
8.883967e+00 5.043881e+08
9.062045e+00 4.851372e+08
9.243693e+00 4.668737e+08
9.428983e+00 4.494202e+08
9.617986e+00 4.322545e+08
9.810778e+00 4.157478e+08
1.000743e+01 3.997171e+08
1.020803e+01 3.839964e+08
1.041265e+01 3.684790e+08
1.062137e+01 3.534863e+08
1.083428e+01 3.390074e+08
1.105145e+01 3.250911e+08
1.127297e+01 3.115800e+08
1.149894e+01 2.991214e+08
1.172944e+01 2.868721e+08
1.196455e+01 2.749237e+08
1.220438e+01 2.635886e+08
1.244902e+01 2.525796e+08
1.269856e+01 2.419277e+08
1.295310e+01 2.315421e+08
1.321274e+01 2.214439e+08
1.347759e+01 2.119458e+08
1.374775e+01 2.032569e+08
1.402332e+01 1.947405e+08
1.430442e+01 1.865238e+08
1.459115e+01 1.782667e+08
1.488362e+01 1.706489e+08
1.518197e+01 1.629707e+08
1.548629e+01 1.556385e+08
1.579671e+01 1.485465e+08
1.611335e+01 1.419610e+08
1.643634e+01 1.356509e+08
1.676581e+01 1.295900e+08
1.710188e+01 1.234315e+08
1.744468e+01 1.178063e+08
1.779436e+01 1.124212e+08
1.815105e+01 1.074209e+08
1.851488e+01 1.025702e+08
1.888601e+01 9.798271e+07
1.926458e+01 9.337029e+07
1.965074e+01 8.907879e+07
2.004464e+01 8.521925e+07
2.044643e+01 8.140823e+07
2.085628e+01 7.766667e+07
2.127434e+01 7.403189e+07
2.170078e+01 7.054310e+07
2.213577e+01 6.722966e+07
2.257948e+01 6.411735e+07
2.303209e+01 6.109896e+07
2.349376e+01 5.826823e+07
2.396469e+01 5.556307e+07
2.444506e+01 5.294228e+07
2.493506e+01 5.043229e+07
2.543488e+01 4.807339e+07
2.594472e+01 4.582384e+07
2.646478e+01 4.355074e+07
2.699527e+01 4.146368e+07
2.753639e+01 3.944781e+07
2.808835e+01 3.760873e+07
2.865138e+01 3.584210e+07
2.922570e+01 3.412177e+07
2.981152e+01 3.251099e+07
3.040909e+01 3.088706e+07
3.101864e+01 2.942647e+07
3.164041e+01 2.803252e+07
3.227464e+01 2.664986e+07
3.292158e+01 2.537483e+07
3.358149e+01 2.414385e+07
3.425463e+01 2.300269e+07
3.494126e+01 2.190536e+07
3.564165e+01 2.086110e+07
3.635609e+01 1.983627e+07
3.708484e+01 1.887192e+07
3.782820e+01 1.795736e+07
3.858647e+01 1.709916e+07
3.935993e+01 1.628323e+07
4.014890e+01 1.548113e+07
4.095368e+01 1.472025e+07
4.177459e+01 1.401176e+07
4.261196e+01 1.332111e+07
4.346611e+01 1.266864e+07
4.433739e+01 1.205953e+07
4.522613e+01 1.147065e+07
4.613268e+01 1.088573e+07
4.705741e+01 1.035650e+07
4.800067e+01 9.851169e+06
4.896284e+01 9.362206e+06
4.994430e+01 8.880943e+06
5.094543e+01 8.449965e+06
5.196662e+01 8.028338e+06
5.300829e+01 7.626370e+06
5.407084e+01 7.248584e+06
5.515468e+01 6.864331e+06
5.626026e+01 6.519242e+06
5.738799e+01 6.193935e+06
5.853833e+01 5.867693e+06
5.971172e+01 5.567446e+06
6.090864e+01 5.287490e+06
6.212955e+01 5.013442e+06
6.337493e+01 4.756814e+06
6.464528e+01 4.519391e+06
6.594109e+01 4.296295e+06
6.726287e+01 4.074208e+06
6.861115e+01 3.866463e+06
6.998645e+01 3.665425e+06
7.138933e+01 3.475582e+06
7.282032e+01 3.290020e+06
7.428000e+01 3.112207e+06
7.576894e+01 2.952923e+06
7.728772e+01 2.803688e+06
7.883694e+01 2.661587e+06
8.041722e+01 2.526298e+06
8.202918e+01 2.392317e+06
8.367345e+01 2.271250e+06
8.535068e+01 2.152623e+06
8.706153e+01 2.040655e+06
8.880667e+01 1.934225e+06
9.058679e+01 1.831743e+06
9.240260e+01 1.737060e+06
9.425480e+01 1.649392e+06
9.614413e+01 1.564744e+06
9.807133e+01 1.482824e+06
1.000372e+02 1.405578e+06
1.020424e+02 1.332068e+06
1.040878e+02 1.261491e+06
1.061743e+02 1.194661e+06
1.083025e+02 1.131724e+06
1.104734e+02 1.070995e+06
1.126879e+02 1.010675e+06
1.149467e+02 9.563277e+05
1.172508e+02 9.066309e+05
1.196011e+02 8.583221e+05
1.219985e+02 8.137681e+05
1.244439e+02 7.688875e+05
1.269384e+02 7.271880e+05
1.294828e+02 6.885133e+05
1.320783e+02 6.503376e+05
1.347258e+02 6.141681e+05
1.374264e+02 5.816701e+05
1.401811e+02 5.517627e+05
1.429910e+02 5.212583e+05
1.458573e+02 4.921133e+05
1.487810e+02 4.648253e+05
1.517633e+02 4.380408e+05
1.548053e+02 4.138956e+05
1.579084e+02 3.905931e+05
1.610737e+02 3.692020e+05
1.643024e+02 3.483975e+05
1.675958e+02 3.297005e+05
1.709552e+02 3.120171e+05
1.743820e+02 2.947812e+05
1.778775e+02 2.786764e+05
1.814430e+02 2.629771e+05
1.850801e+02 2.481309e+05
1.887900e+02 2.341400e+05
1.925743e+02 2.210024e+05
1.964344e+02 2.082610e+05
2.003719e+02 1.965801e+05
2.043883e+02 1.852048e+05
2.084853e+02 1.745532e+05
2.126644e+02 1.647104e+05
2.169272e+02 1.554637e+05
2.212755e+02 1.468612e+05
2.257109e+02 1.386223e+05
2.302353e+02 1.308549e+05
2.348503e+02 1.234987e+05
2.395579e+02 1.164257e+05
2.443598e+02 1.096522e+05
2.492580e+02 1.035064e+05
2.542544e+02 9.753393e+04
2.593509e+02 9.198059e+04
2.645495e+02 8.659387e+04
2.698524e+02 8.129757e+04
2.752616e+02 7.648832e+04
2.807792e+02 7.167987e+04
2.864074e+02 6.749218e+04
2.921484e+02 6.349846e+04
2.980045e+02 5.961001e+04
3.039780e+02 5.605971e+04
3.100712e+02 5.280765e+04
3.162865e+02 4.955522e+04
3.226265e+02 4.664656e+04
3.290935e+02 4.382221e+04
3.356901e+02 4.087415e+04
3.424190e+02 3.847695e+04
3.492828e+02 3.617979e+04
3.562841e+02 3.398237e+04
3.634258e+02 3.187252e+04
3.707107e+02 2.990003e+04
3.781415e+02 2.803364e+04
3.857213e+02 2.628621e+04
3.934531e+02 2.462237e+04
4.013398e+02 2.301708e+04
4.093847e+02 2.157891e+04
4.175907e+02 2.022758e+04
4.259613e+02 1.893343e+04
4.344997e+02 1.771770e+04
4.432092e+02 1.658431e+04
4.520933e+02 1.553164e+04
4.611555e+02 1.453334e+04
4.703993e+02 1.361573e+04
4.798284e+02 1.276591e+04
4.894465e+02 1.194631e+04
4.992574e+02 1.114331e+04
5.092650e+02 1.038495e+04
5.194732e+02 9.698887e+03
5.298860e+02 9.051727e+03
5.405075e+02 8.438219e+03
5.513420e+02 7.850371e+03
5.623936e+02 7.359071e+03
5.736667e+02 6.850110e+03
5.851658e+02 6.349748e+03
5.968954e+02 5.894722e+03
6.088601e+02 5.482533e+03
6.210647e+02 5.079693e+03
6.335139e+02 4.739808e+03
6.462126e+02 4.406190e+03
6.591659e+02 4.093980e+03
6.723788e+02 3.802967e+03
6.858566e+02 3.530031e+03
6.996046e+02 3.275672e+03
7.136281e+02 3.030584e+03
7.279327e+02 2.817842e+03
7.425240e+02 2.619143e+03
7.574079e+02 2.429964e+03
7.725901e+02 2.263013e+03
7.880766e+02 2.104504e+03
8.038735e+02 1.951498e+03
8.199871e+02 1.808363e+03
8.364237e+02 1.670564e+03
8.531897e+02 1.540773e+03
8.702918e+02 1.420168e+03
8.877368e+02 1.306262e+03
9.055314e+02 1.201453e+03
9.236827e+02 1.106696e+03
9.421978e+02 1.018833e+03
9.610841e+02 9.430474e+02
9.803490e+02 8.667475e+02
1.000000e+03 8.005829e+02
