# Energy(MeV) Fluence(cm^-2 MeV^-1)
5.000000e-02 2.017333e+11
5.100225e-02 1.968002e+11
5.202458e-02 1.920352e+11
5.306741e-02 1.872410e+11
5.413114e-02 1.824747e+11
5.521620e-02 1.778616e+11
5.632300e-02 1.733490e+11
5.745199e-02 1.690356e+11
5.860361e-02 1.648272e+11
5.977832e-02 1.606547e+11
6.097657e-02 1.565450e+11
6.219884e-02 1.524805e+11
6.344561e-02 1.486759e+11
6.471737e-02 1.449609e+11
6.601463e-02 1.413157e+11
6.733789e-02 1.376406e+11
6.868767e-02 1.341421e+11
7.006451e-02 1.308850e+11
7.146895e-02 1.275579e+11
7.290154e-02 1.242561e+11
7.436284e-02 1.211191e+11
7.585344e-02 1.180363e+11
7.737392e-02 1.150149e+11
7.892487e-02 1.120110e+11
8.050691e-02 1.091791e+11
8.212067e-02 1.064194e+11
8.376677e-02 1.037360e+11
8.544587e-02 1.010294e+11
8.715862e-02 9.857430e+10
8.890571e-02 9.618398e+10
9.068782e-02 9.380972e+10
9.250565e-02 9.148720e+10
9.435992e-02 8.917171e+10
9.625136e-02 8.692944e+10
9.818071e-02 8.473636e+10
1.001487e-01 8.260267e+10
1.021562e-01 8.049756e+10
1.042039e-01 7.845791e+10
1.062927e-01 7.643914e+10
1.084233e-01 7.457536e+10
1.105966e-01 7.273157e+10
1.128135e-01 7.092849e+10
1.150749e-01 6.909798e+10
1.173816e-01 6.738166e+10
1.197345e-01 6.566256e+10
1.221345e-01 6.408522e+10
1.245827e-01 6.248075e+10
1.270800e-01 6.095512e+10
1.296273e-01 5.946585e+10
1.322256e-01 5.797240e+10
1.348761e-01 5.650688e+10
1.375797e-01 5.508534e+10
1.403374e-01 5.371807e+10
1.431505e-01 5.235974e+10
1.460199e-01 5.100233e+10
1.489469e-01 4.970836e+10
1.519325e-01 4.841054e+10
1.549780e-01 4.712873e+10
1.580845e-01 4.592220e+10
1.612533e-01 4.480913e+10
1.644856e-01 4.371878e+10
1.677827e-01 4.264082e+10
1.711459e-01 4.151998e+10
1.745765e-01 4.042371e+10
1.780759e-01 3.944288e+10
1.816454e-01 3.838415e+10
1.852865e-01 3.737730e+10
1.890005e-01 3.642000e+10
1.927890e-01 3.549617e+10
1.966535e-01 3.459526e+10
2.005954e-01 3.373023e+10
2.046163e-01 3.287039e+10
2.087178e-01 3.199350e+10
2.129015e-01 3.121996e+10
2.171691e-01 3.046218e+10
2.215223e-01 2.966305e+10
2.259627e-01 2.889018e+10
2.304921e-01 2.815755e+10
2.351123e-01 2.745548e+10
2.398251e-01 2.675613e+10
2.446324e-01 2.609572e+10
2.495360e-01 2.545254e+10
2.545379e-01 2.479773e+10
2.596401e-01 2.416826e+10
2.648446e-01 2.356588e+10
2.701534e-01 2.296972e+10
2.755686e-01 2.237910e+10
2.810923e-01 2.179208e+10
2.867268e-01 2.122916e+10
2.924742e-01 2.068203e+10
2.983368e-01 2.015962e+10
3.043170e-01 1.961066e+10
3.104170e-01 1.912672e+10
3.166393e-01 1.864126e+10
3.229863e-01 1.817015e+10
3.294605e-01 1.771830e+10
3.360645e-01 1.727312e+10
3.428009e-01 1.683913e+10
3.496723e-01 1.639388e+10
3.566815e-01 1.597893e+10
3.638311e-01 1.557045e+10
3.711241e-01 1.517197e+10
3.785633e-01 1.478331e+10
3.861515e-01 1.440537e+10
3.938919e-01 1.402757e+10
4.017874e-01 1.366849e+10
4.098412e-01 1.331507e+10
4.180565e-01 1.296566e+10
4.264364e-01 1.262869e+10
4.349843e-01 1.229785e+10
4.437035e-01 1.197464e+10
4.525975e-01 1.165267e+10
4.616698e-01 1.134743e+10
4.709239e-01 1.104970e+10
4.803635e-01 1.076064e+10
4.899924e-01 1.048116e+10
4.998143e-01 1.021185e+10
5.098330e-01 9.945909e+09
5.200526e-01 9.684743e+09
5.304770e-01 9.432939e+09
5.411103e-01 9.192418e+09
5.519569e-01 8.950515e+09
5.630208e-01 8.720194e+09
5.743065e-01 8.497092e+09
5.858184e-01 8.281427e+09
5.975611e-01 8.062594e+09
6.095392e-01 7.853595e+09
6.217573e-01 7.654212e+09
6.342204e-01 7.455491e+09
6.469333e-01 7.253725e+09
6.599011e-01 7.063223e+09
6.731287e-01 6.879229e+09
6.866215e-01 6.699280e+09
7.003848e-01 6.524690e+09
7.144240e-01 6.343790e+09
7.287445e-01 6.179818e+09
7.433522e-01 6.016675e+09
7.582526e-01 5.858149e+09
7.734517e-01 5.699325e+09
7.889555e-01 5.546346e+09
8.047701e-01 5.401328e+09
8.209016e-01 5.263273e+09
8.373565e-01 5.123781e+09
8.541413e-01 4.986169e+09
8.712625e-01 4.851901e+09
8.887268e-01 4.722131e+09
9.065413e-01 4.594163e+09
9.247129e-01 4.473806e+09
9.432487e-01 4.358682e+09
9.621560e-01 4.243612e+09
9.814423e-01 4.130386e+09
1.001115e+00 4.018135e+09
1.021183e+00 3.910744e+09
1.041652e+00 3.802804e+09
1.062532e+00 3.698859e+09
1.083830e+00 3.595343e+09
1.105556e+00 3.497830e+09
1.127716e+00 3.402678e+09
1.150321e+00 3.309652e+09
1.173379e+00 3.218019e+09
1.196900e+00 3.129883e+09
1.220892e+00 3.041672e+09
1.245364e+00 2.959705e+09
1.270327e+00 2.880720e+09
1.295791e+00 2.803498e+09
1.321765e+00 2.726211e+09
1.348260e+00 2.650891e+09
1.375286e+00 2.572349e+09
1.402853e+00 2.498389e+09
1.430973e+00 2.432190e+09
1.459657e+00 2.366185e+09
1.488916e+00 2.302713e+09
1.518761e+00 2.240673e+09
1.549204e+00 2.179566e+09
1.580258e+00 2.117802e+09
1.611934e+00 2.059279e+09
1.644245e+00 2.002093e+09
1.677204e+00 1.946334e+09
1.710823e+00 1.892158e+09
1.745117e+00 1.840194e+09
1.780097e+00 1.788042e+09
1.815779e+00 1.738034e+09
1.852176e+00 1.687495e+09
1.889303e+00 1.639134e+09
1.927174e+00 1.591279e+09
1.965804e+00 1.545386e+09
2.005209e+00 1.500060e+09
2.045403e+00 1.457211e+09
2.086403e+00 1.413085e+09
2.128224e+00 1.372351e+09
2.170885e+00 1.334122e+09
2.214400e+00 1.295315e+09
2.258787e+00 1.258373e+09
2.304064e+00 1.222672e+09
2.350249e+00 1.187352e+09
2.397360e+00 1.153069e+09
2.445415e+00 1.119481e+09
2.494433e+00 1.086674e+09
2.544434e+00 1.054934e+09
2.595437e+00 1.023731e+09
2.647462e+00 9.926604e+08
2.700530e+00 9.617797e+08
2.754662e+00 9.332610e+08
2.809879e+00 9.053417e+08
2.866203e+00 8.787469e+08
2.923656e+00 8.534160e+08
2.982260e+00 8.273141e+08
3.042039e+00 8.022162e+08
3.103017e+00 7.769139e+08
3.165216e+00 7.530080e+08
3.228663e+00 7.302920e+08
3.293381e+00 7.084447e+08
3.359397e+00 6.851256e+08
3.426736e+00 6.635404e+08
3.495424e+00 6.426528e+08
3.565490e+00 6.225388e+08
3.636960e+00 6.034323e+08
3.709862e+00 5.834484e+08
3.784226e+00 5.657485e+08
3.860081e+00 5.482570e+08
3.937456e+00 5.301468e+08
4.016382e+00 5.131916e+08
4.096890e+00 4.978123e+08
4.179012e+00 4.817177e+08
4.262780e+00 4.671896e+08
4.348227e+00 4.521381e+08
4.435387e+00 4.374793e+08
4.524294e+00 4.235009e+08
4.614983e+00 4.100486e+08
4.707490e+00 3.970332e+08
4.801851e+00 3.841665e+08
4.898104e+00 3.716920e+08
4.996286e+00 3.597353e+08
5.096436e+00 3.478568e+08
5.198594e+00 3.367016e+08
5.302799e+00 3.250905e+08
5.409093e+00 3.142790e+08
5.517518e+00 3.038032e+08
5.628116e+00 2.930522e+08
5.740932e+00 2.830383e+08
5.856008e+00 2.733764e+08
5.973391e+00 2.641192e+08
6.093127e+00 2.548952e+08
6.215264e+00 2.461411e+08
6.339848e+00 2.373705e+08
6.466930e+00 2.290801e+08
6.596559e+00 2.213257e+08
6.728787e+00 2.135150e+08
6.863665e+00 2.059400e+08
7.001246e+00 1.981479e+08
7.141586e+00 1.909373e+08
7.284738e+00 1.839235e+08
7.430760e+00 1.770246e+08
7.579709e+00 1.706466e+08
7.731644e+00 1.643980e+08
7.886624e+00 1.582279e+08
8.044711e+00 1.524466e+08
8.205967e+00 1.467152e+08
8.370455e+00 1.412463e+08
8.538240e+00 1.359028e+08
8.709388e+00 1.309583e+08
8.883967e+00 1.260970e+08
9.062045e+00 1.212843e+08
9.243693e+00 1.167184e+08
9.428983e+00 1.123551e+08
9.617986e+00 1.080636e+08
9.810778e+00 1.039369e+08
1.000743e+01 9.992927e+07
1.020803e+01 9.599910e+07
1.041265e+01 9.211975e+07
1.062137e+01 8.837158e+07
1.083428e+01 8.475184e+07
1.105145e+01 8.127278e+07
1.127297e+01 7.789500e+07
1.149894e+01 7.478035e+07
1.172944e+01 7.171803e+07
1.196455e+01 6.873093e+07
1.220438e+01 6.589716e+07
1.244902e+01 6.314491e+07
1.269856e+01 6.048191e+07
1.295310e+01 5.788552e+07
1.321274e+01 5.536097e+07
1.347759e+01 5.298644e+07
1.374775e+01 5.081423e+07
1.402332e+01 4.868514e+07
1.430442e+01 4.663095e+07
1.459115e+01 4.456668e+07
1.488362e+01 4.266222e+07
1.518197e+01 4.074266e+07
1.548629e+01 3.890962e+07
1.579671e+01 3.713664e+07
1.611335e+01 3.549024e+07
1.643634e+01 3.391273e+07
1.676581e+01 3.239750e+07
1.710188e+01 3.085787e+07
1.744468e+01 2.945158e+07
1.779436e+01 2.810530e+07
1.815105e+01 2.685522e+07
1.851488e+01 2.564256e+07
1.888601e+01 2.449568e+07
1.926458e+01 2.334257e+07
1.965074e+01 2.226970e+07
2.004464e+01 2.130481e+07
2.044643e+01 2.035206e+07
2.085628e+01 1.941667e+07
2.127434e+01 1.850797e+07
2.170078e+01 1.763578e+07
2.213577e+01 1.680742e+07
2.257948e+01 1.602934e+07
2.303209e+01 1.527474e+07
2.349376e+01 1.456706e+07
2.396469e+01 1.389077e+07
2.444506e+01 1.323557e+07
2.493506e+01 1.260807e+07
2.543488e+01 1.201835e+07
2.594472e+01 1.145596e+07
2.646478e+01 1.088768e+07
2.699527e+01 1.036592e+07
2.753639e+01 9.861953e+06
2.808835e+01 9.402183e+06
2.865138e+01 8.960526e+06
2.922570e+01 8.530442e+06
2.981152e+01 8.127748e+06
3.040909e+01 7.721764e+06
3.101864e+01 7.356617e+06
3.164041e+01 7.008131e+06
3.227464e+01 6.662464e+06
3.292158e+01 6.343708e+06
3.358149e+01 6.035962e+06
3.425463e+01 5.750673e+06
3.494126e+01 5.476340e+06
3.564165e+01 5.215276e+06
3.635609e+01 4.959068e+06
3.708484e+01 4.717980e+06
3.782820e+01 4.489340e+06
3.858647e+01 4.274789e+06
3.935993e+01 4.070809e+06
4.014890e+01 3.870283e+06
4.095368e+01 3.680061e+06
4.177459e+01 3.502940e+06
4.261196e+01 3.330279e+06
4.346611e+01 3.167160e+06
4.433739e+01 3.014882e+06
4.522613e+01 2.867664e+06
4.613268e+01 2.721432e+06
4.705741e+01 2.589126e+06
4.800067e+01 2.462792e+06
4.896284e+01 2.340552e+06
4.994430e+01 2.220236e+06
5.094543e+01 2.112491e+06
5.196662e+01 2.007084e+06
5.300829e+01 1.906593e+06
5.407084e+01 1.812146e+06
5.515468e+01 1.716083e+06
5.626026e+01 1.629810e+06
5.738799e+01 1.548484e+06
5.853833e+01 1.466923e+06
5.971172e+01 1.391861e+06
6.090864e+01 1.321872e+06
6.212955e+01 1.253361e+06
6.337493e+01 1.189203e+06
6.464528e+01 1.129848e+06
6.594109e+01 1.074074e+06
6.726287e+01 1.018552e+06
6.861115e+01 9.666159e+05
6.998645e+01 9.163563e+05
7.138933e+01 8.688956e+05
7.282032e+01 8.225050e+05
7.428000e+01 7.780516e+05
7.576894e+01 7.382307e+05
7.728772e+01 7.009221e+05
7.883694e+01 6.653968e+05
8.041722e+01 6.315744e+05
8.202918e+01 5.980792e+05
8.367345e+01 5.678125e+05
8.535068e+01 5.381559e+05
8.706153e+01 5.101637e+05
8.880667e+01 4.835563e+05
9.058679e+01 4.579356e+05
9.240260e+01 4.342649e+05
9.425480e+01 4.123479e+05
9.614413e+01 3.911861e+05
9.807133e+01 3.707061e+05
1.000372e+02 3.513946e+05
1.020424e+02 3.330170e+05
1.040878e+02 3.153728e+05
1.061743e+02 2.986652e+05
1.083025e+02 2.829310e+05
1.104734e+02 2.677488e+05
1.126879e+02 2.526688e+05
1.149467e+02 2.390819e+05
1.172508e+02 2.266577e+05
1.196011e+02 2.145805e+05
1.219985e+02 2.034420e+05
1.244439e+02 1.922219e+05
1.269384e+02 1.817970e+05
1.294828e+02 1.721283e+05
1.320783e+02 1.625844e+05
1.347258e+02 1.535420e+05
1.374264e+02 1.454175e+05
1.401811e+02 1.379407e+05
1.429910e+02 1.303146e+05
1.458573e+02 1.230283e+05
1.487810e+02 1.162063e+05
1.517633e+02 1.095102e+05
1.548053e+02 1.034739e+05
1.579084e+02 9.764828e+04
1.610737e+02 9.230050e+04
1.643024e+02 8.709938e+04
1.675958e+02 8.242513e+04
1.709552e+02 7.800429e+04
1.743820e+02 7.369530e+04
1.778775e+02 6.966911e+04
1.814430e+02 6.574427e+04
1.850801e+02 6.203271e+04
1.887900e+02 5.853501e+04
1.925743e+02 5.525060e+04
1.964344e+02 5.206525e+04
2.003719e+02 4.914502e+04
2.043883e+02 4.630119e+04
2.084853e+02 4.363830e+04
2.126644e+02 4.117760e+04
2.169272e+02 3.886594e+04
2.212755e+02 3.671530e+04
2.257109e+02 3.465557e+04
2.302353e+02 3.271373e+04
2.348503e+02 3.087468e+04
2.395579e+02 2.910641e+04
2.443598e+02 2.741304e+04
2.492580e+02 2.587661e+04
2.542544e+02 2.438348e+04
2.593509e+02 2.299515e+04
2.645495e+02 2.164847e+04
2.698524e+02 2.032439e+04
2.752616e+02 1.912208e+04
2.807792e+02 1.791997e+04
2.864074e+02 1.687304e+04
2.921484e+02 1.587461e+04
2.980045e+02 1.490250e+04
3.039780e+02 1.401493e+04
3.100712e+02 1.320191e+04
3.162865e+02 1.238881e+04
3.226265e+02 1.166164e+04
3.290935e+02 1.095555e+04
3.356901e+02 1.021854e+04
3.424190e+02 9.619238e+03
3.492828e+02 9.044947e+03
3.562841e+02 8.495593e+03
3.634258e+02 7.968131e+03
3.707107e+02 7.475008e+03
3.781415e+02 7.008409e+03
3.857213e+02 6.571554e+03
3.934531e+02 6.155593e+03
4.013398e+02 5.754270e+03
4.093847e+02 5.394728e+03
4.175907e+02 5.056896e+03
4.259613e+02 4.733357e+03
4.344997e+02 4.429426e+03
4.432092e+02 4.146078e+03
4.520933e+02 3.882909e+03
4.611555e+02 3.633334e+03
4.703993e+02 3.403932e+03
4.798284e+02 3.191478e+03
4.894465e+02 2.986577e+03
4.992574e+02 2.785828e+03
5.092650e+02 2.596237e+03
5.194732e+02 2.424722e+03
5.298860e+02 2.262932e+03
5.405075e+02 2.109555e+03
5.513420e+02 1.962593e+03
5.623936e+02 1.839768e+03
5.736667e+02 1.712528e+03
5.851658e+02 1.587437e+03
5.968954e+02 1.473681e+03
6.088601e+02 1.370633e+03
6.210647e+02 1.269923e+03
6.335139e+02 1.184952e+03
6.462126e+02 1.101548e+03
6.591659e+02 1.023495e+03
6.723788e+02 9.507418e+02
6.858566e+02 8.825077e+02
6.996046e+02 8.189179e+02
7.136281e+02 7.576460e+02
7.279327e+02 7.044606e+02
7.425240e+02 6.547857e+02
7.574079e+02 6.074910e+02
7.725901e+02 5.657533e+02
7.880766e+02 5.261260e+02
8.038735e+02 4.878744e+02
8.199871e+02 4.520907e+02
8.364237e+02 4.176409e+02
8.531897e+02 3.851931e+02
8.702918e+02 3.550420e+02
8.877368e+02 3.265656e+02
9.055314e+02 3.003632e+02
9.236827e+02 2.766740e+02
9.421978e+02 2.547082e+02
9.610841e+02 2.357619e+02
9.803490e+02 2.166869e+02
1.000000e+03 2.001457e+02
