Energy(MeV)  Phi_16(cm^-2 MeV^-1)  Phi_84(cm^-2 MeV^-1)
5.000000e-02 8.105088e+10 1.232767e+11
5.168383e-02 7.878618e+10 1.192447e+11
5.342437e-02 7.655799e+10 1.153194e+11
5.522353e-02 7.439467e+10 1.116026e+11
5.708327e-02 7.229813e+10 1.080752e+11
5.900565e-02 7.023973e+10 1.046011e+11
6.099276e-02 6.823484e+10 1.011541e+11
6.304680e-02 6.630082e+10 9.795396e+10
6.517000e-02 6.437572e+10 9.486262e+10
6.736471e-02 6.254832e+10 9.183018e+10
6.963333e-02 6.080480e+10 8.889563e+10
7.197835e-02 5.913082e+10 8.601885e+10
7.440234e-02 5.747509e+10 8.312109e+10
7.690796e-02 5.575836e+10 8.037855e+10
7.949797e-02 5.421610e+10 7.775936e+10
8.217519e-02 5.269140e+10 7.535678e+10
8.494258e-02 5.120108e+10 7.295900e+10
8.780317e-02 4.969004e+10 7.054106e+10
9.076008e-02 4.819102e+10 6.819090e+10
9.381658e-02 4.678873e+10 6.604924e+10
9.697601e-02 4.545857e+10 6.393831e+10
1.002418e-01 4.410890e+10 6.195201e+10
1.036177e-01 4.288175e+10 5.995942e+10
1.071072e-01 4.167484e+10 5.802525e+10
1.107142e-01 4.051664e+10 5.608979e+10
1.144426e-01 3.932634e+10 5.424377e+10
1.182967e-01 3.820196e+10 5.253559e+10
1.222805e-01 3.709513e+10 5.089644e+10
1.263985e-01 3.599812e+10 4.925322e+10
1.306552e-01 3.493596e+10 4.766072e+10
1.350553e-01 3.396950e+10 4.614109e+10
1.396035e-01 3.300099e+10 4.469522e+10
1.443048e-01 3.204437e+10 4.330210e+10
1.491646e-01 3.111227e+10 4.185478e+10
1.541879e-01 3.016544e+10 4.052605e+10
1.593805e-01 2.930665e+10 3.917014e+10
1.647479e-01 2.845987e+10 3.793418e+10
1.702960e-01 2.764863e+10 3.668144e+10
1.760310e-01 2.683280e+10 3.550210e+10
1.819592e-01 2.606013e+10 3.433209e+10
1.880869e-01 2.529607e+10 3.325209e+10
1.944211e-01 2.454599e+10 3.219891e+10
2.009685e-01 2.380148e+10 3.117484e+10
2.077365e-01 2.311312e+10 3.023854e+10
2.147324e-01 2.242694e+10 2.926170e+10
2.219638e-01 2.174815e+10 2.829698e+10
2.294388e-01 2.109922e+10 2.739820e+10
2.371656e-01 2.051635e+10 2.651773e+10
2.451525e-01 1.991786e+10 2.565957e+10
2.534084e-01 1.932975e+10 2.483301e+10
2.619424e-01 1.876053e+10 2.406672e+10
2.707637e-01 1.819291e+10 2.327390e+10
2.798822e-01 1.764415e+10 2.255585e+10
2.893077e-01 1.713260e+10 2.185637e+10
2.990506e-01 1.663114e+10 2.117263e+10
3.091216e-01 1.614811e+10 2.049822e+10
3.195318e-01 1.566564e+10 1.983107e+10
3.302926e-01 1.516621e+10 1.919319e+10
3.414157e-01 1.469326e+10 1.857615e+10
3.529135e-01 1.425477e+10 1.796663e+10
3.647984e-01 1.384472e+10 1.738937e+10
3.770836e-01 1.341334e+10 1.682818e+10
3.897825e-01 1.301203e+10 1.627413e+10
4.029091e-01 1.263554e+10 1.573553e+10
4.164778e-01 1.225858e+10 1.524192e+10
4.305033e-01 1.188815e+10 1.473902e+10
4.450013e-01 1.151231e+10 1.427035e+10
4.599874e-01 1.115407e+10 1.381605e+10
4.754783e-01 1.081984e+10 1.340183e+10
4.914908e-01 1.049448e+10 1.297138e+10
5.080426e-01 1.017696e+10 1.257071e+10
5.251518e-01 9.868200e+09 1.216501e+10
5.428371e-01 9.560550e+09 1.179491e+10
5.611181e-01 9.266789e+09 1.143042e+10
5.800147e-01 8.980878e+09 1.106507e+10
5.995476e-01 8.699071e+09 1.071510e+10
6.197384e-01 8.429787e+09 1.038287e+10
6.406091e-01 8.160784e+09 1.005786e+10
6.621827e-01 7.898153e+09 9.726649e+09
6.844828e-01 7.648510e+09 9.421898e+09
7.075339e-01 7.411806e+09 9.127347e+09
7.313613e-01 7.173116e+09 8.835008e+09
7.559911e-01 6.938194e+09 8.548600e+09
7.814504e-01 6.710760e+09 8.295962e+09
8.077670e-01 6.489328e+09 8.024138e+09
8.349699e-01 6.280842e+09 7.764932e+09
8.630889e-01 6.073543e+09 7.522810e+09
8.921549e-01 5.884442e+09 7.281559e+09
9.221997e-01 5.700305e+09 7.062134e+09
9.532563e-01 5.515843e+09 6.832906e+09
9.853588e-01 5.336407e+09 6.614391e+09
1.018542e+00 5.159526e+09 6.401460e+09
1.052844e+00 4.985516e+09 6.201791e+09
1.088300e+00 4.819668e+09 6.005031e+09
1.124950e+00 4.657801e+09 5.820796e+09
1.162835e+00 4.501678e+09 5.640360e+09
1.201995e+00 4.348279e+09 5.450776e+09
1.242474e+00 4.201220e+09 5.274078e+09
1.284317e+00 4.061022e+09 5.098362e+09
1.327568e+00 3.927440e+09 4.931234e+09
1.372276e+00 3.797664e+09 4.769212e+09
1.418490e+00 3.671168e+09 4.617650e+09
1.466260e+00 3.548866e+09 4.466143e+09
1.515639e+00 3.426108e+09 4.321736e+09
1.566680e+00 3.308552e+09 4.177042e+09
1.619441e+00 3.194370e+09 4.038044e+09
1.673978e+00 3.086098e+09 3.902037e+09
1.730352e+00 2.981669e+09 3.773508e+09
1.788625e+00 2.877535e+09 3.650653e+09
1.848860e+00 2.778168e+09 3.533475e+09
1.911123e+00 2.680014e+09 3.412080e+09
1.975484e+00 2.586324e+09 3.297591e+09
2.042011e+00 2.494114e+09 3.188407e+09
2.110780e+00 2.404288e+09 3.082716e+09
2.181864e+00 2.320117e+09 2.976329e+09
2.255341e+00 2.238469e+09 2.873509e+09
2.331294e+00 2.159188e+09 2.772992e+09
2.409804e+00 2.076718e+09 2.677561e+09
2.490958e+00 1.998755e+09 2.585672e+09
2.574845e+00 1.923959e+09 2.495951e+09
2.661558e+00 1.855588e+09 2.408168e+09
2.751190e+00 1.788717e+09 2.324911e+09
2.843841e+00 1.725494e+09 2.242593e+09
2.939612e+00 1.661035e+09 2.161071e+09
3.038609e+00 1.600481e+09 2.082666e+09
3.140939e+00 1.538793e+09 2.008159e+09
3.246715e+00 1.478354e+09 1.934772e+09
3.356054e+00 1.419407e+09 1.866635e+09
3.469074e+00 1.364819e+09 1.799960e+09
3.585901e+00 1.311891e+09 1.733023e+09
3.706663e+00 1.260857e+09 1.669821e+09
3.831491e+00 1.212344e+09 1.608748e+09
3.960522e+00 1.166386e+09 1.547934e+09
4.093900e+00 1.120295e+09 1.489512e+09
4.231769e+00 1.076472e+09 1.434576e+09
4.374280e+00 1.032928e+09 1.377441e+09
4.521592e+00 9.920428e+08 1.324116e+09
4.673864e+00 9.520253e+08 1.272936e+09
4.831264e+00 9.137209e+08 1.222282e+09
4.993965e+00 8.764771e+08 1.173556e+09
5.162145e+00 8.408565e+08 1.124466e+09
5.335989e+00 8.060852e+08 1.077954e+09
5.515687e+00 7.728194e+08 1.034550e+09
5.701437e+00 7.402282e+08 9.928506e+08
5.893443e+00 7.087770e+08 9.514291e+08
6.091914e+00 6.786689e+08 9.119919e+08
6.297070e+00 6.490484e+08 8.742691e+08
6.509134e+00 6.205490e+08 8.366980e+08
6.728340e+00 5.929107e+08 8.014160e+08
6.954928e+00 5.659862e+08 7.669251e+08
7.189147e+00 5.399721e+08 7.320106e+08
7.431253e+00 5.150252e+08 6.992605e+08
7.681513e+00 4.909913e+08 6.669678e+08
7.940201e+00 4.683730e+08 6.353410e+08
8.207601e+00 4.473579e+08 6.046509e+08
8.484005e+00 4.264379e+08 5.759009e+08
8.769719e+00 4.064615e+08 5.482278e+08
9.065053e+00 3.868106e+08 5.216517e+08
9.370334e+00 3.681362e+08 4.964809e+08
9.685896e+00 3.500338e+08 4.721444e+08
1.001208e+01 3.328814e+08 4.488998e+08
1.034926e+01 3.160755e+08 4.258090e+08
1.069779e+01 2.997865e+08 4.033527e+08
1.105805e+01 2.837518e+08 3.824721e+08
1.143045e+01 2.691278e+08 3.621364e+08
1.181539e+01 2.548970e+08 3.422181e+08
1.221329e+01 2.408853e+08 3.231497e+08
1.262460e+01 2.275920e+08 3.056545e+08
1.304975e+01 2.148346e+08 2.885194e+08
1.348922e+01 2.028196e+08 2.720357e+08
1.394350e+01 1.908854e+08 2.567023e+08
1.441307e+01 1.796729e+08 2.411432e+08
1.489845e+01 1.691855e+08 2.266038e+08
1.540018e+01 1.591070e+08 2.132955e+08
1.591881e+01 1.491762e+08 2.000439e+08
1.645490e+01 1.396760e+08 1.873205e+08
1.700905e+01 1.308661e+08 1.753687e+08
1.758185e+01 1.222512e+08 1.636542e+08
1.817395e+01 1.141377e+08 1.530473e+08
1.878599e+01 1.065883e+08 1.428092e+08
1.941864e+01 9.931594e+07 1.330792e+08
2.007260e+01 9.219349e+07 1.238659e+08
2.074857e+01 8.546453e+07 1.149779e+08
2.144732e+01 7.896420e+07 1.069439e+08
2.216959e+01 7.306728e+07 9.945153e+07
2.291619e+01 6.728623e+07 9.222040e+07
2.368793e+01 6.215171e+07 8.510816e+07
2.448566e+01 5.731277e+07 7.856839e+07
2.531026e+01 5.263464e+07 7.244401e+07
2.616262e+01 4.835290e+07 6.655067e+07
2.704369e+01 4.441756e+07 6.111157e+07
2.795443e+01 4.057241e+07 5.611544e+07
2.889585e+01 3.696307e+07 5.145076e+07
2.986896e+01 3.354228e+07 4.693012e+07
3.087485e+01 3.055935e+07 4.285305e+07
3.191461e+01 2.781900e+07 3.908595e+07
3.298939e+01 2.520627e+07 3.561945e+07
3.410036e+01 2.272544e+07 3.231986e+07
3.524875e+01 2.046431e+07 2.928111e+07
3.643581e+01 1.840443e+07 2.654906e+07
3.766285e+01 1.646203e+07 2.398342e+07
3.893121e+01 1.467863e+07 2.163629e+07
4.024228e+01 1.310418e+07 1.941577e+07
4.159751e+01 1.171567e+07 1.747926e+07
4.299837e+01 1.042523e+07 1.570850e+07
4.444641e+01 9.299239e+06 1.406651e+07
4.594322e+01 8.297627e+06 1.258857e+07
4.749044e+01 7.387802e+06 1.119050e+07
4.908976e+01 6.580972e+06 1.002431e+07
5.074294e+01 5.827991e+06 8.931296e+06
5.245179e+01 5.190708e+06 7.972863e+06
5.421819e+01 4.628528e+06 7.070984e+06
5.604408e+01 4.098165e+06 6.281506e+06
5.793146e+01 3.606945e+06 5.618113e+06
5.988240e+01 3.185306e+06 4.985602e+06
6.189904e+01 2.799695e+06 4.407645e+06
6.398359e+01 2.468471e+06 3.906631e+06
6.613834e+01 2.179788e+06 3.475996e+06
6.836566e+01 1.924012e+06 3.087749e+06
7.066799e+01 1.688092e+06 2.746783e+06
7.304785e+01 1.480769e+06 2.445016e+06
7.550786e+01 1.302761e+06 2.173016e+06
7.805072e+01 1.141397e+06 1.938957e+06
8.067920e+01 1.001397e+06 1.728427e+06
8.339621e+01 8.782381e+05 1.541005e+06
8.620472e+01 7.704948e+05 1.376844e+06
8.910781e+01 6.724866e+05 1.231953e+06
9.210866e+01 5.894084e+05 1.102249e+06
9.521057e+01 5.160903e+05 9.881790e+05
9.841695e+01 4.521812e+05 8.895828e+05
1.017313e+02 3.971049e+05 7.951194e+05
1.051573e+02 3.481533e+05 7.127039e+05
1.086986e+02 3.042317e+05 6.393051e+05
1.123592e+02 2.658393e+05 5.735463e+05
1.161431e+02 2.336753e+05 5.137263e+05
1.200544e+02 2.046019e+05 4.608375e+05
1.240975e+02 1.778636e+05 4.142989e+05
1.282767e+02 1.552572e+05 3.728983e+05
1.325966e+02 1.358317e+05 3.341492e+05
1.370620e+02 1.189895e+05 2.989609e+05
1.416778e+02 1.037924e+05 2.689651e+05
1.464490e+02 9.073267e+04 2.410239e+05
1.513809e+02 7.968660e+04 2.161969e+05
1.564789e+02 6.989296e+04 1.933680e+05
1.617486e+02 6.097203e+04 1.729560e+05
1.671958e+02 5.331224e+04 1.547542e+05
1.728264e+02 4.662333e+04 1.386404e+05
1.786466e+02 4.073564e+04 1.246099e+05
1.846628e+02 3.549423e+04 1.118119e+05
1.908817e+02 3.104742e+04 1.004732e+05
1.973099e+02 2.706819e+04 9.026964e+04
2.039547e+02 2.360666e+04 8.145416e+04
2.108232e+02 2.067288e+04 7.321644e+04
2.179230e+02 1.807475e+04 6.595494e+04
2.252619e+02 1.568798e+04 5.934024e+04
2.328480e+02 1.365184e+04 5.306665e+04
2.406895e+02 1.189871e+04 4.764634e+04
2.487952e+02 1.041519e+04 4.261234e+04
2.571738e+02 9.050420e+03 3.827991e+04
2.658345e+02 7.942742e+03 3.447015e+04
2.747869e+02 6.905112e+03 3.102376e+04
2.840408e+02 6.017921e+03 2.793263e+04
2.936064e+02 5.237273e+03 2.512997e+04
3.034941e+02 4.577876e+03 2.269738e+04
3.137148e+02 4.026834e+03 2.034281e+04
3.242796e+02 3.505779e+03 1.827923e+04
3.352003e+02 3.050535e+03 1.643940e+04
3.464887e+02 2.659733e+03 1.476852e+04
3.581573e+02 2.318884e+03 1.326431e+04
3.702189e+02 2.028567e+03 1.191344e+04
3.826866e+02 1.774362e+03 1.070028e+04
3.955742e+02 1.539884e+03 9.610770e+03
4.088958e+02 1.349611e+03 8.640253e+03
4.226661e+02 1.177061e+03 7.773739e+03
4.369001e+02 1.026841e+03 6.994233e+03
4.516134e+02 8.952866e+02 6.292990e+03
4.668222e+02 7.790680e+02 5.710875e+03
4.825433e+02 6.808522e+02 5.129811e+03
4.987937e+02 5.934586e+02 4.607000e+03
5.155914e+02 5.188547e+02 4.136425e+03
5.329548e+02 4.526296e+02 3.712237e+03
5.509030e+02 3.943844e+02 3.332165e+03
5.694556e+02 3.444479e+02 2.992758e+03
5.886329e+02 3.007187e+02 2.687961e+03
6.084561e+02 2.625398e+02 2.414242e+03
6.289469e+02 2.286534e+02 2.169012e+03
6.501277e+02 2.000476e+02 1.955730e+03
6.720219e+02 1.746893e+02 1.763449e+03
6.946533e+02 1.525029e+02 1.590097e+03
7.180470e+02 1.331325e+02 1.433810e+03
7.422284e+02 1.157805e+02 1.291702e+03
7.672242e+02 1.007376e+02 1.162589e+03
7.930617e+02 8.782009e+01 1.043995e+03
8.197694e+02 7.661594e+01 9.365983e+02
8.473765e+02 6.666640e+01 8.402679e+02
8.759133e+02 5.791129e+01 7.590405e+02
9.054112e+02 5.040402e+01 6.820014e+02
9.359024e+02 4.388893e+01 6.127903e+02
9.674205e+02 3.815428e+01 5.506153e+02
1.000000e+03 3.316828e+01 4.947207e+02
