# Energy(MeV) Planare_Fluence(cm^-2*MeV^-1)
5.000000e-02 2.072569e+11
5.100225e-02 2.018877e+11
5.202458e-02 1.968871e+11
5.306741e-02 1.919234e+11
5.413114e-02 1.868477e+11
5.521620e-02 1.820077e+11
5.632300e-02 1.773480e+11
5.745199e-02 1.728450e+11
5.860361e-02 1.683760e+11
5.977832e-02 1.641020e+11
6.097657e-02 1.599780e+11
6.219884e-02 1.558989e+11
6.344561e-02 1.519337e+11
6.471737e-02 1.480858e+11
6.601463e-02 1.443495e+11
6.733789e-02 1.406807e+11
6.868767e-02 1.371150e+11
7.006451e-02 1.336206e+11
7.146895e-02 1.301667e+11
7.290154e-02 1.269025e+11
7.436284e-02 1.236767e+11
7.585344e-02 1.205677e+11
7.737392e-02 1.175035e+11
7.892487e-02 1.145146e+11
8.050691e-02 1.115760e+11
8.212067e-02 1.087450e+11
8.376677e-02 1.060084e+11
8.544587e-02 1.033248e+11
8.715862e-02 1.005675e+11
8.890571e-02 9.795584e+10
9.068782e-02 9.546376e+10
9.250565e-02 9.300579e+10
9.435992e-02 9.062315e+10
9.625136e-02 8.834472e+10
9.818071e-02 8.613480e+10
1.001487e-01 8.393718e+10
1.021562e-01 8.181202e+10
1.042039e-01 7.975490e+10
1.062927e-01 7.776755e+10
1.084233e-01 7.579938e+10
1.105966e-01 7.390221e+10
1.128135e-01 7.199635e+10
1.150749e-01 7.015795e+10
1.173816e-01 6.838779e+10
1.197345e-01 6.662780e+10
1.221345e-01 6.489013e+10
1.245827e-01 6.322349e+10
1.270800e-01 6.161843e+10
1.296273e-01 6.004083e+10
1.322256e-01 5.852031e+10
1.348761e-01 5.704495e+10
1.375797e-01 5.557608e+10
1.403374e-01 5.418356e+10
1.431505e-01 5.279414e+10
1.460199e-01 5.143935e+10
1.489469e-01 5.013120e+10
1.519325e-01 4.888699e+10
1.549780e-01 4.765057e+10
1.580845e-01 4.644503e+10
1.612533e-01 4.526073e+10
1.644856e-01 4.410572e+10
1.677827e-01 4.298719e+10
1.711459e-01 4.186839e+10
1.745765e-01 4.079833e+10
1.780759e-01 3.978246e+10
1.816454e-01 3.877970e+10
1.852865e-01 3.782598e+10
1.890005e-01 3.688379e+10
1.927890e-01 3.594124e+10
1.966535e-01 3.503187e+10
2.005954e-01 3.411662e+10
2.046163e-01 3.324927e+10
2.087178e-01 3.240533e+10
2.129015e-01 3.155735e+10
2.171691e-01 3.076071e+10
2.215223e-01 2.996566e+10
2.259627e-01 2.919250e+10
2.304921e-01 2.844037e+10
2.351123e-01 2.770552e+10
2.398251e-01 2.699708e+10
2.446324e-01 2.630971e+10
2.495360e-01 2.564315e+10
2.545379e-01 2.497437e+10
2.596401e-01 2.431887e+10
2.648446e-01 2.369516e+10
2.701534e-01 2.309501e+10
2.755686e-01 2.249506e+10
2.810923e-01 2.192085e+10
2.867268e-01 2.136363e+10
2.924742e-01 2.081042e+10
2.983368e-01 2.028501e+10
3.043170e-01 1.975612e+10
3.104170e-01 1.923691e+10
3.166393e-01 1.874277e+10
3.229863e-01 1.827868e+10
3.294605e-01 1.781177e+10
3.360645e-01 1.735157e+10
3.428009e-01 1.689400e+10
3.496723e-01 1.645875e+10
3.566815e-01 1.604591e+10
3.638311e-01 1.562446e+10
3.711241e-01 1.522125e+10
3.785633e-01 1.483024e+10
3.861515e-01 1.445615e+10
3.938919e-01 1.407900e+10
4.017874e-01 1.372024e+10
4.098412e-01 1.336784e+10
4.180565e-01 1.302094e+10
4.264364e-01 1.268006e+10
4.349843e-01 1.234926e+10
4.437035e-01 1.203563e+10
4.525975e-01 1.172643e+10
4.616698e-01 1.142190e+10
4.709239e-01 1.113192e+10
4.803635e-01 1.085096e+10
4.899924e-01 1.057045e+10
4.998143e-01 1.029262e+10
5.098330e-01 1.002414e+10
5.200526e-01 9.764954e+09
5.304770e-01 9.508461e+09
5.411103e-01 9.258062e+09
5.519569e-01 9.016786e+09
5.630208e-01 8.778414e+09
5.743065e-01 8.549076e+09
5.858184e-01 8.326347e+09
5.975611e-01 8.118502e+09
6.095392e-01 7.908910e+09
6.217573e-01 7.702179e+09
6.342204e-01 7.500890e+09
6.469333e-01 7.304095e+09
6.599011e-01 7.109239e+09
6.731287e-01 6.923222e+09
6.866215e-01 6.743946e+09
7.003848e-01 6.570076e+09
7.144240e-01 6.398246e+09
7.287445e-01 6.236615e+09
7.433522e-01 6.072415e+09
7.582526e-01 5.912870e+09
7.734517e-01 5.755746e+09
7.889555e-01 5.602227e+09
8.047701e-01 5.453862e+09
8.209016e-01 5.309800e+09
8.373565e-01 5.168336e+09
8.541413e-01 5.031087e+09
8.712625e-01 4.898627e+09
8.887268e-01 4.768040e+09
9.065413e-01 4.638888e+09
9.247129e-01 4.514598e+09
9.432487e-01 4.395935e+09
9.621560e-01 4.280055e+09
9.814423e-01 4.167868e+09
1.001115e+00 4.057184e+09
1.021183e+00 3.950395e+09
1.041652e+00 3.844132e+09
1.062532e+00 3.741290e+09
1.083830e+00 3.640710e+09
1.105556e+00 3.541957e+09
1.127716e+00 3.449053e+09
1.150321e+00 3.355841e+09
1.173379e+00 3.264726e+09
1.196900e+00 3.175535e+09
1.220892e+00 3.091089e+09
1.245364e+00 3.009191e+09
1.270327e+00 2.928074e+09
1.295791e+00 2.848241e+09
1.321765e+00 2.771206e+09
1.348260e+00 2.697700e+09
1.375286e+00 2.624197e+09
1.402853e+00 2.553547e+09
1.430973e+00 2.483810e+09
1.459657e+00 2.414898e+09
1.488916e+00 2.348926e+09
1.518761e+00 2.284744e+09
1.549204e+00 2.221961e+09
1.580258e+00 2.161370e+09
1.611934e+00 2.102559e+09
1.644245e+00 2.045565e+09
1.677204e+00 1.989714e+09
1.710823e+00 1.935721e+09
1.745117e+00 1.881490e+09
1.780097e+00 1.830173e+09
1.815779e+00 1.779199e+09
1.852176e+00 1.729191e+09
1.889303e+00 1.681037e+09
1.927174e+00 1.634223e+09
1.965804e+00 1.588753e+09
2.005209e+00 1.544634e+09
2.045403e+00 1.501380e+09
2.086403e+00 1.459201e+09
2.128224e+00 1.418862e+09
2.170885e+00 1.379034e+09
2.214400e+00 1.339994e+09
2.258787e+00 1.301249e+09
2.304064e+00 1.264764e+09
2.350249e+00 1.228744e+09
2.397360e+00 1.193609e+09
2.445415e+00 1.159465e+09
2.494433e+00 1.126706e+09
2.544434e+00 1.095229e+09
2.595437e+00 1.064701e+09
2.647462e+00 1.034185e+09
2.700530e+00 1.004371e+09
2.754662e+00 9.755819e+08
2.809879e+00 9.471812e+08
2.866203e+00 9.191605e+08
2.923656e+00 8.916501e+08
2.982260e+00 8.659864e+08
3.042039e+00 8.414136e+08
3.103017e+00 8.171942e+08
3.165216e+00 7.933593e+08
3.228663e+00 7.703314e+08
3.293381e+00 7.484763e+08
3.359397e+00 7.259080e+08
3.426736e+00 7.044745e+08
3.495424e+00 6.833128e+08
3.565490e+00 6.632664e+08
3.636960e+00 6.434459e+08
3.709862e+00 6.243702e+08
3.784226e+00 6.060840e+08
3.860081e+00 5.874498e+08
3.937456e+00 5.697163e+08
4.016382e+00 5.519630e+08
4.096890e+00 5.352376e+08
4.179012e+00 5.188885e+08
4.262780e+00 5.032396e+08
4.348227e+00 4.874553e+08
4.435387e+00 4.721205e+08
4.524294e+00 4.571624e+08
4.614983e+00 4.432738e+08
4.707490e+00 4.293877e+08
4.801851e+00 4.158558e+08
4.898104e+00 4.025341e+08
4.996286e+00 3.896201e+08
5.096436e+00 3.767653e+08
5.198594e+00 3.647580e+08
5.302799e+00 3.530139e+08
5.409093e+00 3.414255e+08
5.517518e+00 3.299987e+08
5.628116e+00 3.193571e+08
5.740932e+00 3.087507e+08
5.856008e+00 2.984050e+08
5.973391e+00 2.885352e+08
6.093127e+00 2.789409e+08
6.215264e+00 2.695539e+08
6.339848e+00 2.608375e+08
6.466930e+00 2.521760e+08
6.596559e+00 2.436166e+08
6.728787e+00 2.353218e+08
6.863665e+00 2.270479e+08
7.001246e+00 2.192247e+08
7.141586e+00 2.116126e+08
7.284738e+00 2.040891e+08
7.430760e+00 1.972186e+08
7.579709e+00 1.903621e+08
7.731644e+00 1.837837e+08
7.886624e+00 1.772977e+08
8.044711e+00 1.708847e+08
8.205967e+00 1.647945e+08
8.370455e+00 1.589345e+08
8.538240e+00 1.532652e+08
8.709388e+00 1.475951e+08
8.883967e+00 1.423661e+08
9.062045e+00 1.372274e+08
9.243693e+00 1.322167e+08
9.428983e+00 1.269900e+08
9.617986e+00 1.220574e+08
9.810778e+00 1.174653e+08
1.000743e+01 1.129747e+08
1.020803e+01 1.087596e+08
1.041265e+01 1.046231e+08
1.062137e+01 1.006306e+08
1.083428e+01 9.687233e+07
1.105145e+01 9.304421e+07
1.127297e+01 8.942252e+07
1.149894e+01 8.581459e+07
1.172944e+01 8.259901e+07
1.196455e+01 7.949979e+07
1.220438e+01 7.630049e+07
1.244902e+01 7.311098e+07
1.269856e+01 7.007881e+07
1.295310e+01 6.721029e+07
1.321274e+01 6.440197e+07
1.347759e+01 6.170014e+07
1.374775e+01 5.911130e+07
1.402332e+01 5.667633e+07
1.430442e+01 5.429690e+07
1.459115e+01 5.198536e+07
1.488362e+01 4.974994e+07
1.518197e+01 4.759627e+07
1.548629e+01 4.554866e+07
1.579671e+01 4.354872e+07
1.611335e+01 4.158202e+07
1.643634e+01 3.975877e+07
1.676581e+01 3.793310e+07
1.710188e+01 3.631909e+07
1.744468e+01 3.467526e+07
1.779436e+01 3.310765e+07
1.815105e+01 3.160176e+07
1.851488e+01 3.016266e+07
1.888601e+01 2.871262e+07
1.926458e+01 2.742240e+07
1.965074e+01 2.614155e+07
2.004464e+01 2.492824e+07
2.044643e+01 2.374866e+07
2.085628e+01 2.260016e+07
2.127434e+01 2.152162e+07
2.170078e+01 2.049957e+07
2.213577e+01 1.953080e+07
2.257948e+01 1.858458e+07
2.303209e+01 1.766495e+07
2.349376e+01 1.678874e+07
2.396469e+01 1.595595e+07
2.444506e+01 1.515723e+07
2.493506e+01 1.438610e+07
2.543488e+01 1.368811e+07
2.594472e+01 1.301206e+07
2.646478e+01 1.235562e+07
2.699527e+01 1.172105e+07
2.753639e+01 1.112899e+07
2.808835e+01 1.055168e+07
2.865138e+01 1.001754e+07
2.922570e+01 9.512363e+06
2.981152e+01 9.024171e+06
3.040909e+01 8.557265e+06
3.101864e+01 8.125879e+06
3.164041e+01 7.713837e+06
3.227464e+01 7.323917e+06
3.292158e+01 6.943882e+06
3.358149e+01 6.595833e+06
3.425463e+01 6.248968e+06
3.494126e+01 5.925353e+06
3.564165e+01 5.616713e+06
3.635609e+01 5.319579e+06
3.708484e+01 5.050530e+06
3.782820e+01 4.793379e+06
3.858647e+01 4.544109e+06
3.935993e+01 4.317385e+06
4.014890e+01 4.097862e+06
4.095368e+01 3.887153e+06
4.177459e+01 3.687611e+06
4.261196e+01 3.502031e+06
4.346611e+01 3.316546e+06
4.433739e+01 3.144653e+06
4.522613e+01 2.978002e+06
4.613268e+01 2.822089e+06
4.705741e+01 2.677670e+06
4.800067e+01 2.535881e+06
4.896284e+01 2.400876e+06
4.994430e+01 2.274089e+06
5.094543e+01 2.150087e+06
5.196662e+01 2.039748e+06
5.300829e+01 1.933281e+06
5.407084e+01 1.834457e+06
5.515468e+01 1.739272e+06
5.626026e+01 1.643423e+06
5.738799e+01 1.556428e+06
5.853833e+01 1.475002e+06
5.971172e+01 1.398882e+06
6.090864e+01 1.325217e+06
6.212955e+01 1.252620e+06
6.337493e+01 1.186282e+06
6.464528e+01 1.124082e+06
6.594109e+01 1.065877e+06
6.726287e+01 1.010404e+06
6.861115e+01 9.562595e+05
6.998645e+01 9.065942e+05
7.138933e+01 8.580908e+05
7.282032e+01 8.134221e+05
7.428000e+01 7.687154e+05
7.576894e+01 7.275098e+05
7.728772e+01 6.897974e+05
7.883694e+01 6.536522e+05
8.041722e+01 6.185743e+05
8.202918e+01 5.860202e+05
8.367345e+01 5.547947e+05
8.535068e+01 5.259945e+05
8.706153e+01 4.971650e+05
8.880667e+01 4.702975e+05
9.058679e+01 4.451746e+05
9.240260e+01 4.226939e+05
9.425480e+01 4.003474e+05
9.614413e+01 3.779588e+05
9.807133e+01 3.585494e+05
1.000372e+02 3.389845e+05
1.020424e+02 3.210343e+05
1.040878e+02 3.042472e+05
1.061743e+02 2.884463e+05
1.083025e+02 2.727850e+05
1.104734e+02 2.579379e+05
1.126879e+02 2.438668e+05
1.149467e+02 2.306260e+05
1.172508e+02 2.182580e+05
1.196011e+02 2.064034e+05
1.219985e+02 1.955404e+05
1.244439e+02 1.853332e+05
1.269384e+02 1.756223e+05
1.294828e+02 1.665447e+05
1.320783e+02 1.576091e+05
1.347258e+02 1.492803e+05
1.374264e+02 1.411974e+05
1.401811e+02 1.337154e+05
1.429910e+02 1.265717e+05
1.458573e+02 1.198380e+05
1.487810e+02 1.135600e+05
1.517633e+02 1.075226e+05
1.548053e+02 1.017165e+05
1.579084e+02 9.632228e+04
1.610737e+02 9.106871e+04
1.643024e+02 8.610523e+04
1.675958e+02 8.148549e+04
1.709552e+02 7.713769e+04
1.743820e+02 7.312267e+04
1.778775e+02 6.926879e+04
1.814430e+02 6.558757e+04
1.850801e+02 6.210500e+04
1.887900e+02 5.882566e+04
1.925743e+02 5.571321e+04
1.964344e+02 5.278977e+04
2.003719e+02 4.996934e+04
2.043883e+02 4.732303e+04
2.084853e+02 4.481660e+04
2.126644e+02 4.244265e+04
2.169272e+02 4.020055e+04
2.212755e+02 3.810352e+04
2.257109e+02 3.608684e+04
2.302353e+02 3.414160e+04
2.348503e+02 3.232183e+04
2.395579e+02 3.057220e+04
2.443598e+02 2.889772e+04
2.492580e+02 2.734662e+04
2.542544e+02 2.592609e+04
2.593509e+02 2.455389e+04
2.645495e+02 2.328617e+04
2.698524e+02 2.207181e+04
2.752616e+02 2.090724e+04
2.807792e+02 1.983127e+04
2.864074e+02 1.879448e+04
2.921484e+02 1.782318e+04
2.980045e+02 1.688591e+04
3.039780e+02 1.601495e+04
3.100712e+02 1.518782e+04
3.162865e+02 1.437142e+04
3.226265e+02 1.357929e+04
3.290935e+02 1.289688e+04
3.356901e+02 1.221983e+04
3.424190e+02 1.157541e+04
3.492828e+02 1.095382e+04
3.562841e+02 1.036575e+04
3.634258e+02 9.805522e+03
3.707107e+02 9.279546e+03
3.781415e+02 8.781986e+03
3.857213e+02 8.318088e+03
3.934531e+02 7.881102e+03
4.013398e+02 7.457704e+03
4.093847e+02 7.058536e+03
4.175907e+02 6.689340e+03
4.259613e+02 6.325052e+03
4.344997e+02 5.995059e+03
4.432092e+02 5.675908e+03
4.520933e+02 5.373676e+03
4.611555e+02 5.097196e+03
4.703993e+02 4.828566e+03
4.798284e+02 4.574041e+03
4.894465e+02 4.332881e+03
4.992574e+02 4.102948e+03
5.092650e+02 3.878039e+03
5.194732e+02 3.662019e+03
5.298860e+02 3.468430e+03
5.405075e+02 3.289927e+03
5.513420e+02 3.111268e+03
5.623936e+02 2.943833e+03
5.736667e+02 2.788229e+03
5.851658e+02 2.640791e+03
5.968954e+02 2.497181e+03
6.088601e+02 2.359119e+03
6.210647e+02 2.230233e+03
6.335139e+02 2.111456e+03
6.462126e+02 1.999410e+03
6.591659e+02 1.894745e+03
6.723788e+02 1.795514e+03
6.858566e+02 1.700654e+03
6.996046e+02 1.608012e+03
7.136281e+02 1.519254e+03
7.279327e+02 1.435315e+03
7.425240e+02 1.355935e+03
7.574079e+02 1.280870e+03
7.725901e+02 1.209898e+03
7.880766e+02 1.142986e+03
8.038735e+02 1.079923e+03
8.199871e+02 1.020935e+03
8.364237e+02 9.647201e+02
8.531897e+02 9.121316e+02
8.702918e+02 8.630309e+02
8.877368e+02 8.166955e+02
9.055314e+02 7.728202e+02
9.236827e+02 7.312753e+02
9.421978e+02 6.919380e+02
9.610841e+02 6.546918e+02
9.803490e+02 6.194267e+02
1.000000e+03 5.860784e+02
