# Energy(MeV) Sferica_4Pi_Fluence(cm^-2*MeV^-1)
1.000000e+00 7.556135e+09
1.013939e+00 7.532352e+09
1.028073e+00 7.508358e+09
1.042404e+00 7.480527e+09
1.056935e+00 7.451491e+09
1.071668e+00 7.422300e+09
1.086606e+00 7.392953e+09
1.101753e+00 7.363448e+09
1.117111e+00 7.329787e+09
1.132683e+00 7.295809e+09
1.148472e+00 7.258416e+09
1.164481e+00 7.212527e+09
1.180713e+00 7.161366e+09
1.197171e+00 7.110346e+09
1.213859e+00 7.061100e+09
1.230780e+00 7.026855e+09
1.247936e+00 6.992485e+09
1.265332e+00 6.966750e+09
1.282970e+00 6.944464e+09
1.300854e+00 6.919144e+09
1.318987e+00 6.881265e+09
1.337373e+00 6.841247e+09
1.356015e+00 6.794828e+09
1.374917e+00 6.743081e+09
1.394083e+00 6.698180e+09
1.413516e+00 6.660752e+09
1.433219e+00 6.623259e+09
1.453198e+00 6.587631e+09
1.473454e+00 6.553884e+09
1.493993e+00 6.519784e+09
1.514819e+00 6.481893e+09
1.535935e+00 6.444708e+09
1.557345e+00 6.408532e+09
1.579053e+00 6.359353e+09
1.601064e+00 6.317635e+09
1.623382e+00 6.270968e+09
1.646012e+00 6.232190e+09
1.668956e+00 6.186404e+09
1.692220e+00 6.147700e+09
1.715809e+00 6.109227e+09
1.739726e+00 6.051731e+09
1.763977e+00 6.017977e+09
1.788566e+00 5.984050e+09
1.813498e+00 5.938304e+09
1.838777e+00 5.897489e+09
1.864409e+00 5.861863e+09
1.890397e+00 5.821020e+09
1.916748e+00 5.772609e+09
1.943467e+00 5.724290e+09
1.970558e+00 5.686159e+09
1.998026e+00 5.648926e+09
2.025878e+00 5.617077e+09
2.054117e+00 5.573468e+09
2.082751e+00 5.533475e+09
2.111783e+00 5.491136e+09
2.141220e+00 5.442155e+09
2.171068e+00 5.398105e+09
2.201331e+00 5.358326e+09
2.232016e+00 5.318858e+09
2.263130e+00 5.266838e+09
2.294676e+00 5.224090e+09
2.326663e+00 5.170817e+09
2.359095e+00 5.134570e+09
2.391980e+00 5.096959e+09
2.425323e+00 5.044312e+09
2.459130e+00 4.987636e+09
2.493409e+00 4.928414e+09
2.528166e+00 4.879216e+09
2.563407e+00 4.825603e+09
2.599140e+00 4.766382e+09
2.635371e+00 4.720640e+09
2.672106e+00 4.655936e+09
2.709354e+00 4.603496e+09
2.747121e+00 4.554767e+09
2.785414e+00 4.471444e+09
2.824241e+00 4.409204e+09
2.863610e+00 4.346132e+09
2.903527e+00 4.292147e+09
2.944000e+00 4.244488e+09
2.985038e+00 4.202093e+09
3.026648e+00 4.144908e+09
3.068838e+00 4.090149e+09
3.111616e+00 4.051483e+09
3.154990e+00 4.004794e+09
3.198969e+00 3.953724e+09
3.243561e+00 3.907003e+09
3.288774e+00 3.841440e+09
3.334618e+00 3.786003e+09
3.381101e+00 3.725156e+09
3.428231e+00 3.683328e+09
3.476019e+00 3.635065e+09
3.524473e+00 3.577128e+09
3.573602e+00 3.522785e+09
3.623416e+00 3.453981e+09
3.673925e+00 3.381996e+09
3.725137e+00 3.331447e+09
3.777064e+00 3.280069e+09
3.829714e+00 3.227276e+09
3.883098e+00 3.172397e+09
3.937226e+00 3.125851e+09
3.992109e+00 3.071501e+09
4.047757e+00 3.015650e+09
4.104181e+00 2.965126e+09
4.161391e+00 2.918177e+09
4.219398e+00 2.875802e+09
4.278214e+00 2.822989e+09
4.337850e+00 2.770281e+09
4.398317e+00 2.738493e+09
4.459628e+00 2.711562e+09
4.521792e+00 2.659490e+09
4.584824e+00 2.612542e+09
4.648734e+00 2.572423e+09
4.713535e+00 2.518519e+09
4.779239e+00 2.463743e+09
4.845859e+00 2.416545e+09
4.913407e+00 2.369922e+09
4.981898e+00 2.326227e+09
5.051342e+00 2.288481e+09
5.121755e+00 2.242727e+09
5.193150e+00 2.203335e+09
5.265540e+00 2.156638e+09
5.338938e+00 2.124328e+09
5.413360e+00 2.069625e+09
5.488820e+00 2.026312e+09
5.565331e+00 1.986366e+09
5.642908e+00 1.943363e+09
5.721568e+00 1.900149e+09
5.801323e+00 1.856579e+09
5.882190e+00 1.813105e+09
5.964185e+00 1.768785e+09
6.047322e+00 1.726154e+09
6.131619e+00 1.687176e+09
6.217090e+00 1.654431e+09
6.303753e+00 1.617658e+09
6.391624e+00 1.582199e+09
6.480720e+00 1.545295e+09
6.571058e+00 1.512613e+09
6.662655e+00 1.476235e+09
6.755528e+00 1.441757e+09
6.849697e+00 1.403839e+09
6.945178e+00 1.373854e+09
7.041990e+00 1.336029e+09
7.140151e+00 1.303666e+09
7.239681e+00 1.271756e+09
7.340598e+00 1.240555e+09
7.442922e+00 1.210537e+09
7.546673e+00 1.180525e+09
7.651869e+00 1.151092e+09
7.758532e+00 1.121212e+09
7.866682e+00 1.094775e+09
7.976339e+00 1.066577e+09
8.087525e+00 1.040383e+09
8.200261e+00 1.013734e+09
8.314568e+00 9.864821e+08
8.430468e+00 9.590045e+08
8.547985e+00 9.322392e+08
8.667139e+00 9.061393e+08
8.787954e+00 8.816625e+08
8.910453e+00 8.585047e+08
9.034660e+00 8.320865e+08
9.160598e+00 8.081843e+08
9.288292e+00 7.848160e+08
9.417766e+00 7.610445e+08
9.549045e+00 7.378060e+08
9.682153e+00 7.152152e+08
9.817117e+00 6.932549e+08
9.953962e+00 6.721257e+08
1.009272e+01 6.521333e+08
1.023340e+01 6.325467e+08
1.037605e+01 6.135504e+08
1.052069e+01 5.951266e+08
1.066734e+01 5.772580e+08
1.081604e+01 5.595620e+08
1.096681e+01 5.427946e+08
1.111968e+01 5.264768e+08
1.127468e+01 5.102689e+08
1.143184e+01 4.941574e+08
1.159120e+01 4.791807e+08
1.175277e+01 4.645872e+08
1.191660e+01 4.506663e+08
1.208271e+01 4.365102e+08
1.225114e+01 4.229849e+08
1.242191e+01 4.101259e+08
1.259506e+01 3.976094e+08
1.277063e+01 3.853058e+08
1.294865e+01 3.732349e+08
1.312915e+01 3.616800e+08
1.331216e+01 3.504911e+08
1.349772e+01 3.396047e+08
1.368587e+01 3.286222e+08
1.387665e+01 3.177160e+08
1.407008e+01 3.074030e+08
1.426621e+01 2.975217e+08
1.446507e+01 2.879588e+08
1.466671e+01 2.787040e+08
1.487115e+01 2.698353e+08
1.507845e+01 2.612702e+08
1.528864e+01 2.527541e+08
1.550175e+01 2.443473e+08
1.571784e+01 2.360868e+08
1.593694e+01 2.282491e+08
1.615909e+01 2.212312e+08
1.638434e+01 2.141941e+08
1.661273e+01 2.078001e+08
1.684430e+01 2.015570e+08
1.707910e+01 1.953543e+08
1.731717e+01 1.893425e+08
1.755856e+01 1.835158e+08
1.780332e+01 1.778685e+08
1.805149e+01 1.723950e+08
1.830312e+01 1.669377e+08
1.855825e+01 1.615503e+08
1.881694e+01 1.563361e+08
1.907924e+01 1.509869e+08
1.934520e+01 1.458208e+08
1.961486e+01 1.409371e+08
1.988828e+01 1.362670e+08
2.016551e+01 1.317516e+08
2.044661e+01 1.275489e+08
2.073162e+01 1.234913e+08
2.102061e+01 1.195629e+08
2.131362e+01 1.156264e+08
2.161073e+01 1.117572e+08
2.191197e+01 1.081001e+08
2.221741e+01 1.046458e+08
2.252711e+01 1.013022e+08
2.284112e+01 9.812268e+07
2.315951e+01 9.512772e+07
2.348235e+01 9.203768e+07
2.380968e+01 8.904700e+07
2.414157e+01 8.615369e+07
2.447809e+01 8.323771e+07
2.481930e+01 8.052022e+07
2.516527e+01 7.795813e+07
2.551606e+01 7.552429e+07
2.587174e+01 7.316180e+07
2.623238e+01 7.078275e+07
2.659804e+01 6.848110e+07
2.696881e+01 6.625433e+07
2.734474e+01 6.410000e+07
2.772591e+01 6.206813e+07
2.811239e+01 6.009693e+07
2.850426e+01 5.807060e+07
2.890160e+01 5.613975e+07
2.930447e+01 5.423562e+07
2.971296e+01 5.235721e+07
3.012714e+01 5.070697e+07
3.054710e+01 4.921263e+07
3.097291e+01 4.760431e+07
3.140465e+01 4.599845e+07
3.184242e+01 4.439789e+07
3.228628e+01 4.286943e+07
3.273634e+01 4.142095e+07
3.319266e+01 4.005567e+07
3.365535e+01 3.874492e+07
3.412449e+01 3.748399e+07
3.460016e+01 3.630292e+07
3.508247e+01 3.515907e+07
3.557150e+01 3.405127e+07
3.606735e+01 3.297837e+07
3.657011e+01 3.198046e+07
3.707988e+01 3.101351e+07
3.759675e+01 2.999637e+07
3.812083e+01 2.901432e+07
3.865221e+01 2.811045e+07
3.919100e+01 2.721490e+07
3.973730e+01 2.635744e+07
4.029122e+01 2.552700e+07
4.085286e+01 2.472273e+07
4.142232e+01 2.395634e+07
4.199973e+01 2.320655e+07
4.258518e+01 2.247532e+07
4.317880e+01 2.170479e+07
4.378069e+01 2.100065e+07
4.439097e+01 2.031643e+07
4.500975e+01 1.964402e+07
4.563716e+01 1.899392e+07
4.627332e+01 1.836671e+07
4.691835e+01 1.776523e+07
4.757236e+01 1.717538e+07
4.823549e+01 1.660515e+07
4.890787e+01 1.605387e+07
4.958962e+01 1.554074e+07
5.028087e+01 1.506556e+07
5.098176e+01 1.460494e+07
5.169242e+01 1.415843e+07
5.241298e+01 1.369320e+07
5.314359e+01 1.328927e+07
5.388438e+01 1.286913e+07
5.463550e+01 1.246890e+07
5.539709e+01 1.208185e+07
5.616930e+01 1.169824e+07
5.695227e+01 1.129242e+07
5.774615e+01 1.092894e+07
5.855110e+01 1.057729e+07
5.936727e+01 1.023255e+07
6.019482e+01 9.907559e+06
6.103390e+01 9.588770e+06
6.188468e+01 9.280238e+06
6.274732e+01 8.981635e+06
6.362198e+01 8.690197e+06
6.450884e+01 8.406836e+06
6.540806e+01 8.139437e+06
6.631981e+01 7.881558e+06
6.724427e+01 7.633107e+06
6.818162e+01 7.392490e+06
6.913204e+01 7.155257e+06
7.009570e+01 6.922016e+06
7.107280e+01 6.695515e+06
7.206351e+01 6.480672e+06
7.306804e+01 6.272729e+06
7.408657e+01 6.070020e+06
7.511929e+01 5.871726e+06
7.616642e+01 5.671657e+06
7.722814e+01 5.480155e+06
7.830465e+01 5.297239e+06
7.939618e+01 5.130186e+06
8.050292e+01 4.971236e+06
8.162509e+01 4.817221e+06
8.276289e+01 4.667989e+06
8.391656e+01 4.519438e+06
8.508632e+01 4.365663e+06
8.627237e+01 4.212922e+06
8.747496e+01 4.070582e+06
8.869432e+01 3.943282e+06
8.993067e+01 3.819076e+06
9.118425e+01 3.692343e+06
9.245531e+01 3.567329e+06
9.374409e+01 3.446936e+06
9.505083e+01 3.328282e+06
9.637579e+01 3.220875e+06
9.771921e+01 3.117329e+06
9.908137e+01 3.015575e+06
1.004625e+02 2.913288e+06
1.018629e+02 2.810880e+06
1.032828e+02 2.713232e+06
1.047225e+02 2.625454e+06
1.061823e+02 2.543886e+06
1.076624e+02 2.467208e+06
1.091632e+02 2.388484e+06
1.106848e+02 2.311179e+06
1.122277e+02 2.237885e+06
1.137921e+02 2.165777e+06
1.153783e+02 2.093930e+06
1.169866e+02 2.023596e+06
1.186174e+02 1.953726e+06
1.202708e+02 1.887761e+06
1.219473e+02 1.824023e+06
1.236472e+02 1.763818e+06
1.253708e+02 1.707192e+06
1.271184e+02 1.649439e+06
1.288904e+02 1.594430e+06
1.306870e+02 1.541653e+06
1.325087e+02 1.490625e+06
1.343558e+02 1.441893e+06
1.362287e+02 1.395915e+06
1.381276e+02 1.350324e+06
1.400531e+02 1.305453e+06
1.420053e+02 1.262077e+06
1.439848e+02 1.221321e+06
1.459919e+02 1.182455e+06
1.480269e+02 1.144613e+06
1.500903e+02 1.107939e+06
1.521825e+02 1.072440e+06
1.543038e+02 1.038079e+06
1.564548e+02 1.004818e+06
1.586357e+02 9.726234e+05
1.608469e+02 9.414601e+05
1.630891e+02 9.102351e+05
1.653624e+02 8.797485e+05
1.676675e+02 8.502851e+05
1.700047e+02 8.226718e+05
1.723745e+02 7.969072e+05
1.747773e+02 7.719499e+05
1.772136e+02 7.477745e+05
1.796838e+02 7.246168e+05
1.821885e+02 7.015800e+05
1.847281e+02 6.780459e+05
1.873032e+02 6.557192e+05
1.899141e+02 6.340990e+05
1.925614e+02 6.120284e+05
1.952456e+02 5.907268e+05
1.979672e+02 5.704700e+05
2.007267e+02 5.520860e+05
2.035248e+02 5.342420e+05
2.063618e+02 5.159785e+05
2.092383e+02 4.979417e+05
2.121550e+02 4.804136e+05
2.151123e+02 4.644719e+05
2.181109e+02 4.488511e+05
2.211512e+02 4.331089e+05
2.242340e+02 4.183323e+05
2.273597e+02 4.045474e+05
2.305289e+02 3.916773e+05
2.337424e+02 3.786925e+05
2.370006e+02 3.663246e+05
2.403043e+02 3.547593e+05
2.436540e+02 3.428538e+05
2.470504e+02 3.313481e+05
2.504942e+02 3.198840e+05
2.539859e+02 3.087452e+05
2.575263e+02 2.979944e+05
2.611161e+02 2.878472e+05
2.647559e+02 2.780536e+05
2.684465e+02 2.686660e+05
2.721885e+02 2.599249e+05
2.759826e+02 2.510998e+05
2.798297e+02 2.424691e+05
2.837304e+02 2.341351e+05
2.876854e+02 2.260876e+05
2.916956e+02 2.187108e+05
2.957617e+02 2.116481e+05
2.998844e+02 2.043123e+05
3.040646e+02 1.973332e+05
3.083031e+02 1.911960e+05
3.126007e+02 1.853229e+05
3.169582e+02 1.795301e+05
3.213764e+02 1.735052e+05
3.258562e+02 1.678207e+05
3.303985e+02 1.622139e+05
3.350041e+02 1.565924e+05
3.396739e+02 1.511666e+05
3.444087e+02 1.462911e+05
3.492096e+02 1.416987e+05
3.540774e+02 1.368907e+05
3.590130e+02 1.323360e+05
3.640175e+02 1.277618e+05
3.690917e+02 1.232686e+05
3.742366e+02 1.192928e+05
3.794533e+02 1.155943e+05
3.847427e+02 1.119537e+05
3.901058e+02 1.082796e+05
3.955436e+02 1.047317e+05
4.010573e+02 1.014619e+05
4.066478e+02 9.829426e+04
4.123163e+02 9.508606e+04
4.180637e+02 9.197628e+04
4.238913e+02 8.896829e+04
4.298001e+02 8.593654e+04
4.357913e+02 8.311783e+04
4.418660e+02 8.043154e+04
4.480254e+02 7.783222e+04
4.542706e+02 7.511014e+04
4.606029e+02 7.256846e+04
4.670234e+02 7.015299e+04
4.735335e+02 6.795884e+04
4.801343e+02 6.584703e+04
4.868271e+02 6.380085e+04
4.936132e+02 6.172732e+04
5.004939e+02 5.968767e+04
5.074705e+02 5.782783e+04
5.145444e+02 5.608670e+04
5.217169e+02 5.429834e+04
5.289893e+02 5.250292e+04
5.363631e+02 5.068901e+04
5.438397e+02 4.893778e+04
5.514206e+02 4.729860e+04
5.591071e+02 4.576031e+04
5.669007e+02 4.427215e+04
5.748030e+02 4.283249e+04
5.828155e+02 4.143974e+04
5.909396e+02 4.007902e+04
5.991770e+02 3.869153e+04
6.075292e+02 3.734469e+04
6.159978e+02 3.606635e+04
6.245845e+02 3.484999e+04
6.332908e+02 3.363991e+04
6.421186e+02 3.247737e+04
6.510694e+02 3.135502e+04
6.601449e+02 3.027926e+04
6.693470e+02 2.927043e+04
6.786773e+02 2.834164e+04
6.881377e+02 2.739412e+04
6.977300e+02 2.650646e+04
7.074559e+02 2.564756e+04
7.173175e+02 2.481650e+04
7.273165e+02 2.401078e+04
7.374549e+02 2.320324e+04
7.477346e+02 2.242288e+04
7.581576e+02 2.166879e+04
7.687260e+02 2.098739e+04
7.794416e+02 2.032870e+04
7.903066e+02 1.969071e+04
8.013230e+02 1.905439e+04
8.124930e+02 1.840055e+04
8.238187e+02 1.776919e+04
8.353023e+02 1.719378e+04
8.469460e+02 1.663840e+04
8.587519e+02 1.610095e+04
8.707225e+02 1.557573e+04
8.828599e+02 1.505388e+04
8.951665e+02 1.453250e+04
9.076446e+02 1.406142e+04
9.202967e+02 1.363203e+04
9.331251e+02 1.320539e+04
9.461324e+02 1.277302e+04
9.593209e+02 1.234553e+04
9.726934e+02 1.192025e+04
9.862522e+02 1.152692e+04
1.000000e+03 1.113469e+04
