# Energy(MeV) Planare_Pi_Fluence(cm^-2*MeV^-1)
1.000000e+00 1.889034e+09
1.013939e+00 1.883088e+09
1.028073e+00 1.877089e+09
1.042404e+00 1.870132e+09
1.056935e+00 1.862873e+09
1.071668e+00 1.855575e+09
1.086606e+00 1.848238e+09
1.101753e+00 1.840862e+09
1.117111e+00 1.832447e+09
1.132683e+00 1.823952e+09
1.148472e+00 1.814604e+09
1.164481e+00 1.803132e+09
1.180713e+00 1.790341e+09
1.197171e+00 1.777586e+09
1.213859e+00 1.765275e+09
1.230780e+00 1.756714e+09
1.247936e+00 1.748121e+09
1.265332e+00 1.741688e+09
1.282970e+00 1.736116e+09
1.300854e+00 1.729786e+09
1.318987e+00 1.720316e+09
1.337373e+00 1.710312e+09
1.356015e+00 1.698707e+09
1.374917e+00 1.685770e+09
1.394083e+00 1.674545e+09
1.413516e+00 1.665188e+09
1.433219e+00 1.655815e+09
1.453198e+00 1.646908e+09
1.473454e+00 1.638471e+09
1.493993e+00 1.629946e+09
1.514819e+00 1.620473e+09
1.535935e+00 1.611177e+09
1.557345e+00 1.602133e+09
1.579053e+00 1.589838e+09
1.601064e+00 1.579409e+09
1.623382e+00 1.567742e+09
1.646012e+00 1.558048e+09
1.668956e+00 1.546601e+09
1.692220e+00 1.536925e+09
1.715809e+00 1.527307e+09
1.739726e+00 1.512933e+09
1.763977e+00 1.504494e+09
1.788566e+00 1.496013e+09
1.813498e+00 1.484576e+09
1.838777e+00 1.474372e+09
1.864409e+00 1.465466e+09
1.890397e+00 1.455255e+09
1.916748e+00 1.443152e+09
1.943467e+00 1.431072e+09
1.970558e+00 1.421540e+09
1.998026e+00 1.412232e+09
2.025878e+00 1.404269e+09
2.054117e+00 1.393367e+09
2.082751e+00 1.383369e+09
2.111783e+00 1.372784e+09
2.141220e+00 1.360539e+09
2.171068e+00 1.349526e+09
2.201331e+00 1.339582e+09
2.232016e+00 1.329714e+09
2.263130e+00 1.316709e+09
2.294676e+00 1.306023e+09
2.326663e+00 1.292704e+09
2.359095e+00 1.283642e+09
2.391980e+00 1.274240e+09
2.425323e+00 1.261078e+09
2.459130e+00 1.246909e+09
2.493409e+00 1.232104e+09
2.528166e+00 1.219804e+09
2.563407e+00 1.206401e+09
2.599140e+00 1.191595e+09
2.635371e+00 1.180160e+09
2.672106e+00 1.163984e+09
2.709354e+00 1.150874e+09
2.747121e+00 1.138692e+09
2.785414e+00 1.117861e+09
2.824241e+00 1.102301e+09
2.863610e+00 1.086533e+09
2.903527e+00 1.073037e+09
2.944000e+00 1.061122e+09
2.985038e+00 1.050523e+09
3.026648e+00 1.036227e+09
3.068838e+00 1.022537e+09
3.111616e+00 1.012871e+09
3.154990e+00 1.001199e+09
3.198969e+00 9.884309e+08
3.243561e+00 9.767508e+08
3.288774e+00 9.603601e+08
3.334618e+00 9.465008e+08
3.381101e+00 9.312890e+08
3.428231e+00 9.208319e+08
3.476019e+00 9.087663e+08
3.524473e+00 8.942819e+08
3.573602e+00 8.806963e+08
3.623416e+00 8.634952e+08
3.673925e+00 8.454989e+08
3.725137e+00 8.328618e+08
3.777064e+00 8.200173e+08
3.829714e+00 8.068190e+08
3.883098e+00 7.930993e+08
3.937226e+00 7.814628e+08
3.992109e+00 7.678753e+08
4.047757e+00 7.539126e+08
4.104181e+00 7.412814e+08
4.161391e+00 7.295443e+08
4.219398e+00 7.189505e+08
4.278214e+00 7.057473e+08
4.337850e+00 6.925703e+08
4.398317e+00 6.846232e+08
4.459628e+00 6.778905e+08
4.521792e+00 6.648726e+08
4.584824e+00 6.531354e+08
4.648734e+00 6.431057e+08
4.713535e+00 6.296298e+08
4.779239e+00 6.159359e+08
4.845859e+00 6.041362e+08
4.913407e+00 5.924806e+08
4.981898e+00 5.815568e+08
5.051342e+00 5.721203e+08
5.121755e+00 5.606818e+08
5.193150e+00 5.508338e+08
5.265540e+00 5.391595e+08
5.338938e+00 5.310820e+08
5.413360e+00 5.174062e+08
5.488820e+00 5.065781e+08
5.565331e+00 4.965915e+08
5.642908e+00 4.858408e+08
5.721568e+00 4.750372e+08
5.801323e+00 4.641447e+08
5.882190e+00 4.532762e+08
5.964185e+00 4.421963e+08
6.047322e+00 4.315384e+08
6.131619e+00 4.217940e+08
6.217090e+00 4.136078e+08
6.303753e+00 4.044145e+08
6.391624e+00 3.955499e+08
6.480720e+00 3.863237e+08
6.571058e+00 3.781533e+08
6.662655e+00 3.690588e+08
6.755528e+00 3.604393e+08
6.849697e+00 3.509599e+08
6.945178e+00 3.434636e+08
7.041990e+00 3.340072e+08
7.140151e+00 3.259164e+08
7.239681e+00 3.179391e+08
7.340598e+00 3.101387e+08
7.442922e+00 3.026343e+08
7.546673e+00 2.951313e+08
7.651869e+00 2.877731e+08
7.758532e+00 2.803031e+08
7.866682e+00 2.736938e+08
7.976339e+00 2.666442e+08
8.087525e+00 2.600957e+08
8.200261e+00 2.534336e+08
8.314568e+00 2.466205e+08
8.430468e+00 2.397511e+08
8.547985e+00 2.330598e+08
8.667139e+00 2.265348e+08
8.787954e+00 2.204156e+08
8.910453e+00 2.146262e+08
9.034660e+00 2.080216e+08
9.160598e+00 2.020461e+08
9.288292e+00 1.962040e+08
9.417766e+00 1.902611e+08
9.549045e+00 1.844515e+08
9.682153e+00 1.788038e+08
9.817117e+00 1.733137e+08
9.953962e+00 1.680314e+08
1.009272e+01 1.630333e+08
1.023340e+01 1.581367e+08
1.037605e+01 1.533876e+08
1.052069e+01 1.487816e+08
1.066734e+01 1.443145e+08
1.081604e+01 1.398905e+08
1.096681e+01 1.356987e+08
1.111968e+01 1.316192e+08
1.127468e+01 1.275672e+08
1.143184e+01 1.235393e+08
1.159120e+01 1.197952e+08
1.175277e+01 1.161468e+08
1.191660e+01 1.126666e+08
1.208271e+01 1.091276e+08
1.225114e+01 1.057462e+08
1.242191e+01 1.025315e+08
1.259506e+01 9.940234e+07
1.277063e+01 9.632646e+07
1.294865e+01 9.330872e+07
1.312915e+01 9.042000e+07
1.331216e+01 8.762276e+07
1.349772e+01 8.490118e+07
1.368587e+01 8.215555e+07
1.387665e+01 7.942901e+07
1.407008e+01 7.685075e+07
1.426621e+01 7.438042e+07
1.446507e+01 7.198969e+07
1.466671e+01 6.967599e+07
1.487115e+01 6.745883e+07
1.507845e+01 6.531754e+07
1.528864e+01 6.318852e+07
1.550175e+01 6.108682e+07
1.571784e+01 5.902171e+07
1.593694e+01 5.706227e+07
1.615909e+01 5.530779e+07
1.638434e+01 5.354851e+07
1.661273e+01 5.195003e+07
1.684430e+01 5.038924e+07
1.707910e+01 4.883856e+07
1.731717e+01 4.733562e+07
1.755856e+01 4.587895e+07
1.780332e+01 4.446712e+07
1.805149e+01 4.309875e+07
1.830312e+01 4.173442e+07
1.855825e+01 4.038758e+07
1.881694e+01 3.908402e+07
1.907924e+01 3.774672e+07
1.934520e+01 3.645521e+07
1.961486e+01 3.523427e+07
1.988828e+01 3.406674e+07
2.016551e+01 3.293790e+07
2.044661e+01 3.188723e+07
2.073162e+01 3.087282e+07
2.102061e+01 2.989073e+07
2.131362e+01 2.890660e+07
2.161073e+01 2.793930e+07
2.191197e+01 2.702503e+07
2.221741e+01 2.616144e+07
2.252711e+01 2.532555e+07
2.284112e+01 2.453067e+07
2.315951e+01 2.378193e+07
2.348235e+01 2.300942e+07
2.380968e+01 2.226175e+07
2.414157e+01 2.153842e+07
2.447809e+01 2.080943e+07
2.481930e+01 2.013005e+07
2.516527e+01 1.948953e+07
2.551606e+01 1.888107e+07
2.587174e+01 1.829045e+07
2.623238e+01 1.769569e+07
2.659804e+01 1.712028e+07
2.696881e+01 1.656358e+07
2.734474e+01 1.602500e+07
2.772591e+01 1.551703e+07
2.811239e+01 1.502423e+07
2.850426e+01 1.451765e+07
2.890160e+01 1.403494e+07
2.930447e+01 1.355891e+07
2.971296e+01 1.308930e+07
3.012714e+01 1.267674e+07
3.054710e+01 1.230316e+07
3.097291e+01 1.190108e+07
3.140465e+01 1.149961e+07
3.184242e+01 1.109947e+07
3.228628e+01 1.071736e+07
3.273634e+01 1.035524e+07
3.319266e+01 1.001392e+07
3.365535e+01 9.686230e+06
3.412449e+01 9.370997e+06
3.460016e+01 9.075729e+06
3.508247e+01 8.789767e+06
3.557150e+01 8.512816e+06
3.606735e+01 8.244593e+06
3.657011e+01 7.995116e+06
3.707988e+01 7.753377e+06
3.759675e+01 7.499093e+06
3.812083e+01 7.253581e+06
3.865221e+01 7.027614e+06
3.919100e+01 6.803725e+06
3.973730e+01 6.589360e+06
4.029122e+01 6.381751e+06
4.085286e+01 6.180683e+06
4.142232e+01 5.989085e+06
4.199973e+01 5.801638e+06
4.258518e+01 5.618830e+06
4.317880e+01 5.426197e+06
4.378069e+01 5.250162e+06
4.439097e+01 5.079106e+06
4.500975e+01 4.911004e+06
4.563716e+01 4.748480e+06
4.627332e+01 4.591678e+06
4.691835e+01 4.441308e+06
4.757236e+01 4.293846e+06
4.823549e+01 4.151287e+06
4.890787e+01 4.013468e+06
4.958962e+01 3.885186e+06
5.028087e+01 3.766391e+06
5.098176e+01 3.651236e+06
5.169242e+01 3.539608e+06
5.241298e+01 3.423299e+06
5.314359e+01 3.322317e+06
5.388438e+01 3.217283e+06
5.463550e+01 3.117225e+06
5.539709e+01 3.020463e+06
5.616930e+01 2.924560e+06
5.695227e+01 2.823106e+06
5.774615e+01 2.732236e+06
5.855110e+01 2.644322e+06
5.936727e+01 2.558138e+06
6.019482e+01 2.476890e+06
6.103390e+01 2.397192e+06
6.188468e+01 2.320060e+06
6.274732e+01 2.245409e+06
6.362198e+01 2.172549e+06
6.450884e+01 2.101709e+06
6.540806e+01 2.034859e+06
6.631981e+01 1.970390e+06
6.724427e+01 1.908277e+06
6.818162e+01 1.848122e+06
6.913204e+01 1.788814e+06
7.009570e+01 1.730504e+06
7.107280e+01 1.673879e+06
7.206351e+01 1.620168e+06
7.306804e+01 1.568182e+06
7.408657e+01 1.517505e+06
7.511929e+01 1.467931e+06
7.616642e+01 1.417914e+06
7.722814e+01 1.370039e+06
7.830465e+01 1.324310e+06
7.939618e+01 1.282547e+06
8.050292e+01 1.242809e+06
8.162509e+01 1.204305e+06
8.276289e+01 1.166997e+06
8.391656e+01 1.129860e+06
8.508632e+01 1.091416e+06
8.627237e+01 1.053230e+06
8.747496e+01 1.017646e+06
8.869432e+01 9.858204e+05
8.993067e+01 9.547690e+05
9.118425e+01 9.230858e+05
9.245531e+01 8.918323e+05
9.374409e+01 8.617340e+05
9.505083e+01 8.320704e+05
9.637579e+01 8.052186e+05
9.771921e+01 7.793322e+05
9.908137e+01 7.538938e+05
1.004625e+02 7.283220e+05
1.018629e+02 7.027199e+05
1.032828e+02 6.783080e+05
1.047225e+02 6.563636e+05
1.061823e+02 6.359714e+05
1.076624e+02 6.168020e+05
1.091632e+02 5.971210e+05
1.106848e+02 5.777947e+05
1.122277e+02 5.594712e+05
1.137921e+02 5.414442e+05
1.153783e+02 5.234825e+05
1.169866e+02 5.058991e+05
1.186174e+02 4.884315e+05
1.202708e+02 4.719402e+05
1.219473e+02 4.560058e+05
1.236472e+02 4.409546e+05
1.253708e+02 4.267980e+05
1.271184e+02 4.123597e+05
1.288904e+02 3.986074e+05
1.306870e+02 3.854132e+05
1.325087e+02 3.726562e+05
1.343558e+02 3.604734e+05
1.362287e+02 3.489787e+05
1.381276e+02 3.375809e+05
1.400531e+02 3.263634e+05
1.420053e+02 3.155194e+05
1.439848e+02 3.053301e+05
1.459919e+02 2.956136e+05
1.480269e+02 2.861533e+05
1.500903e+02 2.769848e+05
1.521825e+02 2.681101e+05
1.543038e+02 2.595197e+05
1.564548e+02 2.512045e+05
1.586357e+02 2.431558e+05
1.608469e+02 2.353650e+05
1.630891e+02 2.275588e+05
1.653624e+02 2.199371e+05
1.676675e+02 2.125713e+05
1.700047e+02 2.056679e+05
1.723745e+02 1.992268e+05
1.747773e+02 1.929875e+05
1.772136e+02 1.869436e+05
1.796838e+02 1.811542e+05
1.821885e+02 1.753950e+05
1.847281e+02 1.695115e+05
1.873032e+02 1.639298e+05
1.899141e+02 1.585247e+05
1.925614e+02 1.530071e+05
1.952456e+02 1.476817e+05
1.979672e+02 1.426175e+05
2.007267e+02 1.380215e+05
2.035248e+02 1.335605e+05
2.063618e+02 1.289946e+05
2.092383e+02 1.244854e+05
2.121550e+02 1.201034e+05
2.151123e+02 1.161180e+05
2.181109e+02 1.122128e+05
2.211512e+02 1.082772e+05
2.242340e+02 1.045831e+05
2.273597e+02 1.011368e+05
2.305289e+02 9.791933e+04
2.337424e+02 9.467312e+04
2.370006e+02 9.158114e+04
2.403043e+02 8.868981e+04
2.436540e+02 8.571345e+04
2.470504e+02 8.283702e+04
2.504942e+02 7.997100e+04
2.539859e+02 7.718631e+04
2.575263e+02 7.449861e+04
2.611161e+02 7.196179e+04
2.647559e+02 6.951339e+04
2.684465e+02 6.716650e+04
2.721885e+02 6.498123e+04
2.759826e+02 6.277496e+04
2.798297e+02 6.061726e+04
2.837304e+02 5.853376e+04
2.876854e+02 5.652190e+04
2.916956e+02 5.467771e+04
2.957617e+02 5.291202e+04
2.998844e+02 5.107807e+04
3.040646e+02 4.933330e+04
3.083031e+02 4.779899e+04
3.126007e+02 4.633073e+04
3.169582e+02 4.488253e+04
3.213764e+02 4.337629e+04
3.258562e+02 4.195517e+04
3.303985e+02 4.055347e+04
3.350041e+02 3.914810e+04
3.396739e+02 3.779165e+04
3.444087e+02 3.657278e+04
3.492096e+02 3.542468e+04
3.540774e+02 3.422269e+04
3.590130e+02 3.308399e+04
3.640175e+02 3.194045e+04
3.690917e+02 3.081715e+04
3.742366e+02 2.982320e+04
3.794533e+02 2.889858e+04
3.847427e+02 2.798843e+04
3.901058e+02 2.706991e+04
3.955436e+02 2.618294e+04
4.010573e+02 2.536549e+04
4.066478e+02 2.457357e+04
4.123163e+02 2.377152e+04
4.180637e+02 2.299407e+04
4.238913e+02 2.224207e+04
4.298001e+02 2.148414e+04
4.357913e+02 2.077946e+04
4.418660e+02 2.010789e+04
4.480254e+02 1.945805e+04
4.542706e+02 1.877754e+04
4.606029e+02 1.814211e+04
4.670234e+02 1.753825e+04
4.735335e+02 1.698971e+04
4.801343e+02 1.646176e+04
4.868271e+02 1.595021e+04
4.936132e+02 1.543183e+04
5.004939e+02 1.492192e+04
5.074705e+02 1.445696e+04
5.145444e+02 1.402167e+04
5.217169e+02 1.357458e+04
5.289893e+02 1.312573e+04
5.363631e+02 1.267225e+04
5.438397e+02 1.223445e+04
5.514206e+02 1.182465e+04
5.591071e+02 1.144008e+04
5.669007e+02 1.106804e+04
5.748030e+02 1.070812e+04
5.828155e+02 1.035994e+04
5.909396e+02 1.001976e+04
5.991770e+02 9.672883e+03
6.075292e+02 9.336172e+03
6.159978e+02 9.016587e+03
6.245845e+02 8.712498e+03
6.332908e+02 8.409976e+03
6.421186e+02 8.119343e+03
6.510694e+02 7.838755e+03
6.601449e+02 7.569816e+03
6.693470e+02 7.317607e+03
6.786773e+02 7.085411e+03
6.881377e+02 6.848531e+03
6.977300e+02 6.626616e+03
7.074559e+02 6.411891e+03
7.173175e+02 6.204125e+03
7.273165e+02 6.002696e+03
7.374549e+02 5.800810e+03
7.477346e+02 5.605721e+03
7.581576e+02 5.417198e+03
7.687260e+02 5.246847e+03
7.794416e+02 5.082174e+03
7.903066e+02 4.922677e+03
8.013230e+02 4.763599e+03
8.124930e+02 4.600137e+03
8.238187e+02 4.442299e+03
8.353023e+02 4.298445e+03
8.469460e+02 4.159599e+03
8.587519e+02 4.025238e+03
8.707225e+02 3.893933e+03
8.828599e+02 3.763471e+03
8.951665e+02 3.633125e+03
9.076446e+02 3.515355e+03
9.202967e+02 3.408007e+03
9.331251e+02 3.301347e+03
9.461324e+02 3.193256e+03
9.593209e+02 3.086383e+03
9.726934e+02 2.980062e+03
9.862522e+02 2.881729e+03
1.000000e+03 2.783673e+03
