# Energy(MeV) Phi16 Phi84
1.000000e+00 8.576721e+09 1.306753e+10
1.013939e+00 8.403759e+09 1.276908e+10
1.028073e+00 8.234243e+09 1.247979e+10
1.042404e+00 8.068105e+09 1.219785e+10
1.056935e+00 7.905277e+09 1.192252e+10
1.071668e+00 7.745694e+09 1.165347e+10
1.086606e+00 7.588653e+09 1.138988e+10
1.101753e+00 7.433089e+09 1.113277e+10
1.117111e+00 7.281378e+09 1.088113e+10
1.132683e+00 7.134300e+09 1.063473e+10
1.148472e+00 6.990152e+09 1.039495e+10
1.164481e+00 6.849003e+09 1.015910e+10
1.180713e+00 6.710695e+09 9.926304e+09
1.197171e+00 6.576767e+09 9.701196e+09
1.213859e+00 6.445577e+09 9.480982e+09
1.230780e+00 6.316198e+09 9.263468e+09
1.247936e+00 6.190895e+09 9.051060e+09
1.265332e+00 6.068021e+09 8.844134e+09
1.282970e+00 5.947757e+09 8.642072e+09
1.300854e+00 5.829939e+09 8.444580e+09
1.318987e+00 5.712368e+09 8.251554e+09
1.337373e+00 5.596706e+09 8.062895e+09
1.356015e+00 5.482808e+09 7.878504e+09
1.374917e+00 5.371187e+09 7.698031e+09
1.394083e+00 5.262199e+09 7.521508e+09
1.413516e+00 5.155483e+09 7.349703e+09
1.433219e+00 5.050891e+09 7.181758e+09
1.453198e+00 4.948380e+09 7.016371e+09
1.473454e+00 4.847910e+09 6.855271e+09
1.493993e+00 4.749541e+09 6.700408e+09
1.514819e+00 4.653966e+09 6.547070e+09
1.535935e+00 4.560021e+09 6.397160e+09
1.557345e+00 4.467912e+09 6.250641e+09
1.579053e+00 4.376459e+09 6.107435e+09
1.601064e+00 4.287499e+09 5.967468e+09
1.623382e+00 4.202028e+09 5.830668e+09
1.646012e+00 4.116951e+09 5.696880e+09
1.668956e+00 4.033556e+09 5.566023e+09
1.692220e+00 3.951809e+09 5.438477e+09
1.715809e+00 3.871679e+09 5.314319e+09
1.739726e+00 3.793134e+09 5.192980e+09
1.763977e+00 3.716143e+09 5.073913e+09
1.788566e+00 3.639557e+09 4.957527e+09
1.813498e+00 3.564011e+09 4.843558e+09
1.838777e+00 3.490003e+09 4.731886e+09
1.864409e+00 3.417501e+09 4.622127e+09
1.890397e+00 3.346476e+09 4.516780e+09
1.916748e+00 3.276780e+09 4.414140e+09
1.943467e+00 3.208494e+09 4.314214e+09
1.970558e+00 3.142919e+09 4.216292e+09
1.998026e+00 3.079407e+09 4.119822e+09
2.025878e+00 3.016010e+09 4.026228e+09
2.054117e+00 2.954188e+09 3.933899e+09
2.082751e+00 2.893458e+09 3.843649e+09
2.111783e+00 2.834037e+09 3.752097e+09
2.141220e+00 2.775309e+09 3.667471e+09
2.171068e+00 2.718473e+09 3.583519e+09
2.201331e+00 2.661583e+09 3.502508e+09
2.232016e+00 2.607531e+09 3.422132e+09
2.263130e+00 2.553809e+09 3.343904e+09
2.294676e+00 2.501108e+09 3.267327e+09
2.326663e+00 2.449465e+09 3.192533e+09
2.359095e+00 2.398858e+09 3.119323e+09
2.391980e+00 2.348274e+09 3.049314e+09
2.425323e+00 2.300137e+09 2.978320e+09
2.459130e+00 2.253055e+09 2.907463e+09
2.493409e+00 2.205536e+09 2.840086e+09
2.528166e+00 2.158933e+09 2.774169e+09
2.563407e+00 2.114155e+09 2.708832e+09
2.599140e+00 2.070490e+09 2.646123e+09
2.635371e+00 2.027876e+09 2.585159e+09
2.672106e+00 1.985180e+09 2.526467e+09
2.709354e+00 1.944829e+09 2.467397e+09
2.747121e+00 1.903911e+09 2.410030e+09
2.785414e+00 1.864192e+09 2.354317e+09
2.824241e+00 1.825263e+09 2.299451e+09
2.863610e+00 1.787215e+09 2.246860e+09
2.903527e+00 1.749950e+09 2.194178e+09
2.944000e+00 1.713192e+09 2.142047e+09
2.985038e+00 1.676819e+09 2.092357e+09
3.026648e+00 1.641831e+09 2.044712e+09
3.068838e+00 1.608066e+09 1.996445e+09
3.111616e+00 1.573972e+09 1.949636e+09
3.154990e+00 1.540497e+09 1.903624e+09
3.198969e+00 1.508191e+09 1.859483e+09
3.243561e+00 1.476037e+09 1.816839e+09
3.288774e+00 1.444696e+09 1.775214e+09
3.334618e+00 1.414248e+09 1.733203e+09
3.381101e+00 1.384574e+09 1.692732e+09
3.428231e+00 1.355457e+09 1.653724e+09
3.476019e+00 1.326240e+09 1.614801e+09
3.524473e+00 1.298264e+09 1.577020e+09
3.573602e+00 1.271109e+09 1.539354e+09
3.623416e+00 1.244582e+09 1.504258e+09
3.673925e+00 1.218200e+09 1.468951e+09
3.725137e+00 1.191870e+09 1.434377e+09
3.777064e+00 1.166755e+09 1.400674e+09
3.829714e+00 1.141782e+09 1.367743e+09
3.883098e+00 1.117549e+09 1.335318e+09
3.937226e+00 1.093830e+09 1.303471e+09
3.992109e+00 1.071077e+09 1.273416e+09
4.047757e+00 1.048606e+09 1.243999e+09
4.104181e+00 1.026329e+09 1.215504e+09
4.161391e+00 1.004517e+09 1.187631e+09
4.219398e+00 9.828473e+08 1.159593e+09
4.278214e+00 9.612460e+08 1.132007e+09
4.337850e+00 9.406832e+08 1.105120e+09
4.398317e+00 9.202068e+08 1.078588e+09
4.459628e+00 9.005363e+08 1.053038e+09
4.521792e+00 8.811442e+08 1.028295e+09
4.584824e+00 8.620907e+08 1.004048e+09
4.648734e+00 8.434421e+08 9.807465e+08
4.713535e+00 8.252814e+08 9.576045e+08
4.779239e+00 8.073175e+08 9.351826e+08
4.845859e+00 7.890744e+08 9.133908e+08
4.913407e+00 7.717998e+08 8.919684e+08
4.981898e+00 7.550184e+08 8.707345e+08
5.051342e+00 7.387251e+08 8.504154e+08
5.121755e+00 7.227079e+08 8.298820e+08
5.193150e+00 7.071170e+08 8.101913e+08
5.265540e+00 6.917004e+08 7.913095e+08
5.338938e+00 6.764084e+08 7.727562e+08
5.413360e+00 6.614846e+08 7.542473e+08
5.488820e+00 6.465513e+08 7.368356e+08
5.565331e+00 6.321409e+08 7.194463e+08
5.642908e+00 6.182504e+08 7.022685e+08
5.721568e+00 6.039474e+08 6.854738e+08
5.801323e+00 5.907602e+08 6.693497e+08
5.882190e+00 5.776766e+08 6.535184e+08
5.964185e+00 5.649699e+08 6.381415e+08
6.047322e+00 5.518297e+08 6.228534e+08
6.131619e+00 5.397998e+08 6.081813e+08
6.217090e+00 5.277505e+08 5.939548e+08
6.303753e+00 5.156143e+08 5.801306e+08
6.391624e+00 5.038291e+08 5.664316e+08
6.480720e+00 4.923239e+08 5.527765e+08
6.571058e+00 4.810854e+08 5.396534e+08
6.662655e+00 4.700368e+08 5.267864e+08
6.755528e+00 4.592586e+08 5.141733e+08
6.849697e+00 4.487207e+08 5.017480e+08
6.945178e+00 4.384024e+08 4.897798e+08
7.041990e+00 4.284764e+08 4.782075e+08
7.140151e+00 4.189510e+08 4.662931e+08
7.239681e+00 4.095043e+08 4.551492e+08
7.340598e+00 4.000803e+08 4.442589e+08
7.442922e+00 3.905905e+08 4.336828e+08
7.546673e+00 3.814895e+08 4.232397e+08
7.651869e+00 3.727692e+08 4.130017e+08
7.758532e+00 3.639441e+08 4.028964e+08
7.866682e+00 3.552670e+08 3.933172e+08
7.976339e+00 3.468385e+08 3.838748e+08
8.087525e+00 3.385617e+08 3.746230e+08
8.200261e+00 3.304862e+08 3.654888e+08
8.314568e+00 3.225865e+08 3.565195e+08
8.430468e+00 3.149825e+08 3.480349e+08
8.547985e+00 3.074006e+08 3.395477e+08
8.667139e+00 3.000650e+08 3.312817e+08
8.787954e+00 2.927627e+08 3.230684e+08
8.910453e+00 2.857971e+08 3.150661e+08
9.034660e+00 2.788116e+08 3.072763e+08
9.160598e+00 2.721120e+08 2.998012e+08
9.288292e+00 2.656525e+08 2.925619e+08
9.417766e+00 2.592966e+08 2.854033e+08
9.549045e+00 2.530872e+08 2.783986e+08
9.682153e+00 2.470098e+08 2.716271e+08
9.817117e+00 2.410172e+08 2.648341e+08
9.953962e+00 2.352404e+08 2.583155e+08
1.009272e+01 2.295901e+08 2.519782e+08
1.023340e+01 2.239759e+08 2.457189e+08
1.037605e+01 2.184071e+08 2.395654e+08
1.052069e+01 2.130399e+08 2.336482e+08
1.066734e+01 2.077259e+08 2.278142e+08
1.081604e+01 2.025303e+08 2.221314e+08
1.096681e+01 1.976290e+08 2.166079e+08
1.111968e+01 1.927041e+08 2.112134e+08
1.127468e+01 1.880089e+08 2.059846e+08
1.143184e+01 1.831992e+08 2.007934e+08
1.159120e+01 1.785873e+08 1.958036e+08
1.175277e+01 1.741119e+08 1.908940e+08
1.191660e+01 1.697629e+08 1.860512e+08
1.208271e+01 1.655917e+08 1.814378e+08
1.225114e+01 1.613995e+08 1.769440e+08
1.242191e+01 1.572500e+08 1.724237e+08
1.259506e+01 1.532738e+08 1.680362e+08
1.277063e+01 1.493609e+08 1.637475e+08
1.294865e+01 1.456248e+08 1.595116e+08
1.312915e+01 1.418814e+08 1.554371e+08
1.331216e+01 1.382350e+08 1.514455e+08
1.349772e+01 1.346831e+08 1.475791e+08
1.368587e+01 1.312668e+08 1.438257e+08
1.387665e+01 1.279422e+08 1.400995e+08
1.407008e+01 1.246399e+08 1.364879e+08
1.426621e+01 1.213220e+08 1.329615e+08
1.446507e+01 1.181247e+08 1.294781e+08
1.466671e+01 1.149860e+08 1.260859e+08
1.487115e+01 1.119896e+08 1.228453e+08
1.507845e+01 1.090718e+08 1.196861e+08
1.528864e+01 1.062113e+08 1.165811e+08
1.550175e+01 1.033438e+08 1.135050e+08
1.571784e+01 1.005892e+08 1.105146e+08
1.593694e+01 9.794529e+07 1.076033e+08
1.615909e+01 9.531341e+07 1.047268e+08
1.638434e+01 9.275095e+07 1.019648e+08
1.661273e+01 9.022771e+07 9.925759e+07
1.684430e+01 8.779455e+07 9.656232e+07
1.707910e+01 8.545158e+07 9.400986e+07
1.731717e+01 8.314939e+07 9.151536e+07
1.755856e+01 8.087184e+07 8.906216e+07
1.780332e+01 7.866937e+07 8.668077e+07
1.805149e+01 7.656492e+07 8.434988e+07
1.830312e+01 7.443553e+07 8.205232e+07
1.855825e+01 7.240879e+07 7.977719e+07
1.881694e+01 7.038025e+07 7.758392e+07
1.907924e+01 6.843228e+07 7.544069e+07
1.934520e+01 6.652693e+07 7.337064e+07
1.961486e+01 6.467687e+07 7.133309e+07
1.988828e+01 6.284800e+07 6.935269e+07
2.016551e+01 6.107708e+07 6.739433e+07
2.044661e+01 5.938043e+07 6.548332e+07
2.073162e+01 5.767290e+07 6.365081e+07
2.102061e+01 5.598201e+07 6.184450e+07
2.131362e+01 5.436561e+07 6.011884e+07
2.161073e+01 5.280041e+07 5.845137e+07
2.191197e+01 5.129462e+07 5.681033e+07
2.221741e+01 4.978730e+07 5.520136e+07
2.252711e+01 4.833105e+07 5.360174e+07
2.284112e+01 4.692451e+07 5.206593e+07
2.315951e+01 4.556777e+07 5.057195e+07
2.348235e+01 4.425901e+07 4.911552e+07
2.380968e+01 4.294766e+07 4.769251e+07
2.414157e+01 4.169917e+07 4.630324e+07
2.447809e+01 4.041483e+07 4.494368e+07
2.481930e+01 3.919765e+07 4.362159e+07
2.516527e+01 3.803279e+07 4.233008e+07
2.551606e+01 3.691577e+07 4.108673e+07
2.587174e+01 3.578194e+07 3.988399e+07
2.623238e+01 3.468522e+07 3.868836e+07
2.659804e+01 3.361748e+07 3.753950e+07
2.696881e+01 3.257727e+07 3.639926e+07
2.734474e+01 3.158661e+07 3.531450e+07
2.772591e+01 3.060978e+07 3.422330e+07
2.811239e+01 2.963012e+07 3.317556e+07
2.850426e+01 2.869756e+07 3.215312e+07
2.890160e+01 2.780972e+07 3.114674e+07
2.930447e+01 2.694595e+07 3.017223e+07
2.971296e+01 2.607594e+07 2.924398e+07
3.012714e+01 2.523511e+07 2.833930e+07
3.054710e+01 2.444253e+07 2.746053e+07
3.097291e+01 2.365749e+07 2.660479e+07
3.140465e+01 2.290192e+07 2.577464e+07
3.184242e+01 2.217051e+07 2.496952e+07
3.228628e+01 2.147448e+07 2.418130e+07
3.273634e+01 2.078387e+07 2.341407e+07
3.319266e+01 2.010165e+07 2.267069e+07
3.365535e+01 1.944374e+07 2.194563e+07
3.412449e+01 1.880024e+07 2.124254e+07
3.460016e+01 1.817956e+07 2.055729e+07
3.508247e+01 1.758481e+07 1.988751e+07
3.557150e+01 1.700035e+07 1.924250e+07
3.606735e+01 1.642074e+07 1.860865e+07
3.657011e+01 1.584548e+07 1.800047e+07
3.707988e+01 1.530849e+07 1.740501e+07
3.759675e+01 1.479178e+07 1.682363e+07
3.812083e+01 1.428740e+07 1.625680e+07
3.865221e+01 1.378852e+07 1.571035e+07
3.919100e+01 1.331070e+07 1.518407e+07
3.973730e+01 1.285457e+07 1.467523e+07
4.029122e+01 1.240072e+07 1.417868e+07
4.085286e+01 1.196789e+07 1.368472e+07
4.142232e+01 1.154019e+07 1.320471e+07
4.199973e+01 1.113008e+07 1.274400e+07
4.258518e+01 1.073510e+07 1.230111e+07
4.317880e+01 1.034869e+07 1.187049e+07
4.378069e+01 9.979326e+06 1.145449e+07
4.439097e+01 9.611206e+06 1.104657e+07
4.500975e+01 9.257106e+06 1.065108e+07
4.563716e+01 8.905181e+06 1.026785e+07
4.627332e+01 8.567361e+06 9.898413e+06
4.691835e+01 8.245861e+06 9.537518e+06
4.757236e+01 7.942406e+06 9.191995e+06
4.823549e+01 7.636515e+06 8.853961e+06
4.890787e+01 7.337253e+06 8.529329e+06
4.958962e+01 7.047757e+06 8.214711e+06
5.028087e+01 6.777344e+06 7.913903e+06
5.098176e+01 6.517565e+06 7.618558e+06
5.169242e+01 6.258042e+06 7.336535e+06
5.241298e+01 6.002161e+06 7.058371e+06
5.314359e+01 5.761413e+06 6.791888e+06
5.388438e+01 5.538596e+06 6.526830e+06
5.463550e+01 5.315273e+06 6.277035e+06
5.539709e+01 5.085884e+06 6.030507e+06
5.616930e+01 4.867416e+06 5.796282e+06
5.695227e+01 4.664899e+06 5.568312e+06
5.774615e+01 4.465116e+06 5.346424e+06
5.855110e+01 4.269255e+06 5.134592e+06
5.936727e+01 4.086627e+06 4.929888e+06
6.019482e+01 3.905601e+06 4.732644e+06
6.103390e+01 3.731741e+06 4.544275e+06
6.188468e+01 3.566177e+06 4.364927e+06
6.274732e+01 3.405014e+06 4.183779e+06
6.362198e+01 3.250016e+06 4.011133e+06
6.450884e+01 3.107472e+06 3.846927e+06
6.540806e+01 2.964534e+06 3.684828e+06
6.631981e+01 2.833797e+06 3.530855e+06
6.724427e+01 2.707108e+06 3.380753e+06
6.818162e+01 2.581674e+06 3.239470e+06
6.913204e+01 2.460299e+06 3.104257e+06
7.009570e+01 2.344026e+06 2.971347e+06
7.107280e+01 2.233248e+06 2.842996e+06
7.206351e+01 2.128983e+06 2.719804e+06
7.306804e+01 2.030034e+06 2.604385e+06
7.408657e+01 1.934095e+06 2.488959e+06
7.511929e+01 1.842691e+06 2.380460e+06
7.616642e+01 1.755606e+06 2.275062e+06
7.722814e+01 1.672637e+06 2.173124e+06
7.830465e+01 1.593589e+06 2.072938e+06
7.939618e+01 1.518277e+06 1.978237e+06
8.050292e+01 1.446524e+06 1.887090e+06
8.162509e+01 1.378162e+06 1.799391e+06
8.276289e+01 1.313031e+06 1.718237e+06
8.391656e+01 1.250978e+06 1.639440e+06
8.508632e+01 1.191857e+06 1.562213e+06
8.627237e+01 1.135530e+06 1.488383e+06
8.747496e+01 1.081866e+06 1.418043e+06
8.869432e+01 1.030737e+06 1.351506e+06
8.993067e+01 9.820253e+05 1.289864e+06
9.118425e+01 9.356153e+05 1.228906e+06
9.245531e+01 8.913986e+05 1.170828e+06
9.374409e+01 8.492716e+05 1.115496e+06
9.505083e+01 8.091354e+05 1.062778e+06
9.637579e+01 7.708961e+05 1.012552e+06
9.771921e+01 7.344640e+05 9.646991e+05
9.908137e+01 6.997536e+05 9.191080e+05
1.004625e+02 6.666836e+05 8.756715e+05
1.018629e+02 6.351764e+05 8.342877e+05
1.032828e+02 6.051583e+05 7.948598e+05
1.047225e+02 5.765589e+05 7.572952e+05
1.061823e+02 5.493110e+05 7.215058e+05
1.076624e+02 5.233508e+05 6.874079e+05
1.091632e+02 4.986175e+05 6.549214e+05
1.106848e+02 4.750531e+05 6.239702e+05
1.122277e+02 4.526023e+05 5.944817e+05
1.137921e+02 4.312126e+05 5.663868e+05
1.153783e+02 4.108337e+05 5.396197e+05
1.169866e+02 3.914179e+05 5.141176e+05
1.186174e+02 3.729197e+05 4.898207e+05
1.202708e+02 3.552957e+05 4.666721e+05
1.219473e+02 3.385046e+05 4.446174e+05
1.236472e+02 3.225071e+05 4.236050e+05
1.253708e+02 3.072655e+05 4.035857e+05
1.271184e+02 2.927443e+05 3.845125e+05
1.288904e+02 2.789094e+05 3.663406e+05
1.306870e+02 2.657283e+05 3.490276e+05
1.325087e+02 2.531701e+05 3.325327e+05
1.343558e+02 2.412054e+05 3.168174e+05
1.362287e+02 2.298061e+05 3.018448e+05
1.381276e+02 2.189456e+05 2.875798e+05
1.400531e+02 2.085984e+05 2.739889e+05
1.420053e+02 1.987401e+05 2.610404e+05
1.439848e+02 1.893478e+05 2.487037e+05
1.459919e+02 1.803993e+05 2.369501e+05
1.480269e+02 1.718737e+05 2.257520e+05
1.500903e+02 1.637510e+05 2.150831e+05
1.521825e+02 1.560122e+05 2.049184e+05
1.543038e+02 1.486392e+05 1.952341e+05
1.564548e+02 1.416146e+05 1.860074e+05
1.586357e+02 1.349219e+05 1.772168e+05
1.608469e+02 1.285456e+05 1.688416e+05
1.630891e+02 1.224706e+05 1.608623e+05
1.653624e+02 1.166827e+05 1.532600e+05
1.676675e+02 1.111683e+05 1.460170e+05
1.700047e+02 1.059146e+05 1.391163e+05
1.723745e+02 1.009091e+05 1.325418e+05
1.747773e+02 9.614020e+04 1.262779e+05
1.772136e+02 9.159666e+04 1.203101e+05
1.796838e+02 8.726785e+04 1.146243e+05
1.821885e+02 8.314362e+04 1.092072e+05
1.847281e+02 7.921429e+04 1.040462e+05
1.873032e+02 7.547066e+04 9.912900e+04
1.899141e+02 7.190396e+04 9.444421e+04
1.925614e+02 6.850581e+04 8.998083e+04
1.952456e+02 6.526826e+04 8.572839e+04
1.979672e+02 6.218372e+04 8.167691e+04
2.007267e+02 5.924495e+04 7.781691e+04
2.035248e+02 5.644506e+04 7.413932e+04
2.063618e+02 5.377750e+04 7.063554e+04
2.092383e+02 5.123600e+04 6.729735e+04
2.121550e+02 4.881461e+04 6.411691e+04
2.151123e+02 4.650766e+04 6.108678e+04
2.181109e+02 4.430973e+04 5.819985e+04
2.211512e+02 4.221568e+04 5.544936e+04
2.242340e+02 4.022058e+04 5.282886e+04
2.273597e+02 3.831978e+04 5.033219e+04
2.305289e+02 3.650881e+04 4.795352e+04
2.337424e+02 3.478342e+04 4.568726e+04
2.370006e+02 3.313957e+04 4.352811e+04
2.403043e+02 3.157341e+04 4.147100e+04
2.436540e+02 3.008127e+04 3.951110e+04
2.470504e+02 2.865964e+04 3.764383e+04
2.504942e+02 2.730520e+04 3.586480e+04
2.539859e+02 2.601477e+04 3.416985e+04
2.575263e+02 2.478533e+04 3.255500e+04
2.611161e+02 2.361399e+04 3.101647e+04
2.647559e+02 2.249800e+04 2.955065e+04
2.684465e+02 2.143476e+04 2.815410e+04
2.721885e+02 2.042176e+04 2.682356e+04
2.759826e+02 1.945664e+04 2.555589e+04
2.798297e+02 1.853713e+04 2.434813e+04
2.837304e+02 1.766107e+04 2.319745e+04
2.876854e+02 1.682642e+04 2.210115e+04
2.916956e+02 1.603121e+04 2.105667e+04
2.957617e+02 1.527359e+04 2.006154e+04
2.998844e+02 1.455176e+04 1.911344e+04
3.040646e+02 1.386406e+04 1.821015e+04
3.083031e+02 1.320885e+04 1.734955e+04
3.126007e+02 1.258460e+04 1.652962e+04
3.169582e+02 1.198986e+04 1.574844e+04
3.213764e+02 1.142323e+04 1.500418e+04
3.258562e+02 1.088337e+04 1.429509e+04
3.303985e+02 1.036903e+04 1.361951e+04
3.350041e+02 9.878993e+03 1.297586e+04
3.396739e+02 9.412117e+03 1.236263e+04
3.444087e+02 8.967305e+03 1.177838e+04
3.492096e+02 8.543515e+03 1.122174e+04
3.540774e+02 8.139753e+03 1.069140e+04
3.590130e+02 7.755072e+03 1.018613e+04
3.640175e+02 7.388572e+03 9.704743e+03
3.690917e+02 7.039392e+03 9.246103e+03
3.742366e+02 6.706713e+03 8.809137e+03
3.794533e+02 6.389758e+03 8.392822e+03
3.847427e+02 6.087781e+03 7.996182e+03
3.901058e+02 5.800076e+03 7.618287e+03
3.955436e+02 5.525967e+03 7.258251e+03
4.010573e+02 5.264813e+03 6.915230e+03
4.066478e+02 5.016000e+03 6.588420e+03
4.123163e+02 4.778947e+03 6.277055e+03
4.180637e+02 4.553096e+03 5.980405e+03
4.238913e+02 4.337919e+03 5.697774e+03
4.298001e+02 4.132911e+03 5.428501e+03
4.357913e+02 3.937592e+03 5.171953e+03
4.418660e+02 3.751503e+03 4.927529e+03
4.480254e+02 3.574209e+03 4.694657e+03
4.542706e+02 3.405294e+03 4.472790e+03
4.606029e+02 3.244361e+03 4.261408e+03
4.670234e+02 3.091035e+03 4.060017e+03
4.735335e+02 2.944954e+03 3.868143e+03
4.801343e+02 2.805777e+03 3.685336e+03
4.868271e+02 2.673177e+03 3.511169e+03
4.936132e+02 2.546844e+03 3.345233e+03
5.004939e+02 2.426482e+03 3.187140e+03
5.074705e+02 2.311807e+03 3.036517e+03
5.145444e+02 2.202553e+03 2.893013e+03
5.217169e+02 2.098461e+03 2.756291e+03
5.289893e+02 1.999289e+03 2.626030e+03
5.363631e+02 1.904803e+03 2.501925e+03
5.438397e+02 1.814783e+03 2.383686e+03
5.514206e+02 1.729018e+03 2.271034e+03
5.591071e+02 1.647305e+03 2.163706e+03
5.669007e+02 1.569454e+03 2.061451e+03
5.748030e+02 1.495283e+03 1.964028e+03
5.828155e+02 1.424616e+03 1.871209e+03
5.909396e+02 1.357290e+03 1.782777e+03
5.991770e+02 1.293145e+03 1.698524e+03
6.075292e+02 1.232032e+03 1.618252e+03
6.159978e+02 1.173806e+03 1.541775e+03
6.245845e+02 1.118333e+03 1.468911e+03
6.332908e+02 1.065481e+03 1.399491e+03
6.421186e+02 1.015127e+03 1.333352e+03
6.510694e+02 9.671526e+02 1.270339e+03
6.601449e+02 9.214455e+02 1.210303e+03
6.693470e+02 8.778984e+02 1.153105e+03
6.786773e+02 8.364094e+02 1.098610e+03
6.881377e+02 7.968811e+02 1.046690e+03
6.977300e+02 7.592209e+02 9.972241e+02
7.074559e+02 7.233405e+02 9.500958e+02
7.173175e+02 6.891558e+02 9.051948e+02
7.273165e+02 6.565867e+02 8.624158e+02
7.374549e+02 6.255567e+02 8.216585e+02
7.477346e+02 5.959932e+02 7.828274e+02
7.581576e+02 5.678269e+02 7.458314e+02
7.687260e+02 5.409917e+02 7.105838e+02
7.794416e+02 5.154247e+02 6.770020e+02
7.903066e+02 4.910660e+02 6.450073e+02
8.013230e+02 4.678585e+02 6.145246e+02
8.124930e+02 4.457477e+02 5.854825e+02
8.238187e+02 4.246819e+02 5.578129e+02
8.353023e+02 4.046117e+02 5.314510e+02
8.469460e+02 3.854899e+02 5.063349e+02
8.587519e+02 3.672719e+02 4.824058e+02
8.707225e+02 3.499148e+02 4.596076e+02
8.828599e+02 3.333780e+02 4.378868e+02
8.951665e+02 3.176227e+02 4.171925e+02
9.076446e+02 3.026120e+02 3.974762e+02
9.202967e+02 2.883107e+02 3.786917e+02
9.331251e+02 2.746853e+02 3.607950e+02
9.461324e+02 2.617038e+02 3.437440e+02
9.593209e+02 2.493358e+02 3.274988e+02
9.726934e+02 2.375524e+02 3.120214e+02
9.862522e+02 2.263257e+02 2.972755e+02
1.000000e+03 2.156297e+02 2.832264e+02
