# Energy(MeV) Phi16 Phi84
1.000000e+00 4.381782e+05 9.795414e+09
1.013939e+00 4.240649e+05 9.562155e+09
1.028073e+00 4.104069e+05 9.326921e+09
1.042404e+00 3.971893e+05 9.124450e+09
1.056935e+00 3.843981e+05 8.911361e+09
1.071668e+00 3.721993e+05 8.698280e+09
1.086606e+00 3.610658e+05 8.498393e+09
1.101753e+00 3.502659e+05 8.297725e+09
1.117111e+00 3.397895e+05 8.135310e+09
1.132683e+00 3.296271e+05 7.936153e+09
1.148472e+00 3.198623e+05 7.722459e+09
1.164481e+00 3.104277e+05 7.522913e+09
1.180713e+00 3.011165e+05 7.349001e+09
1.197171e+00 2.916724e+05 7.176507e+09
1.213859e+00 2.825245e+05 7.007931e+09
1.230780e+00 2.736637e+05 6.843183e+09
1.247936e+00 2.650809e+05 6.681215e+09
1.265332e+00 2.567673e+05 6.517780e+09
1.282970e+00 2.487145e+05 6.360007e+09
1.300854e+00 2.409143e+05 6.215738e+09
1.318987e+00 2.333785e+05 6.085201e+09
1.337373e+00 2.260944e+05 5.946696e+09
1.356015e+00 2.190729e+05 5.823804e+09
1.374917e+00 2.125918e+05 5.699036e+09
1.394083e+00 2.063278e+05 5.575469e+09
1.413516e+00 2.002717e+05 5.451638e+09
1.433219e+00 1.943935e+05 5.309877e+09
1.453198e+00 1.886878e+05 5.180107e+09
1.473454e+00 1.831496e+05 5.054617e+09
1.493993e+00 1.777739e+05 4.941527e+09
1.514819e+00 1.725561e+05 4.822512e+09
1.535935e+00 1.674914e+05 4.704073e+09
1.557345e+00 1.625754e+05 4.603064e+09
1.579053e+00 1.578038e+05 4.488565e+09
1.601064e+00 1.531722e+05 4.388989e+09
1.623382e+00 1.486765e+05 4.264342e+09
1.646012e+00 1.443128e+05 4.156128e+09
1.668956e+00 1.400772e+05 4.039155e+09
1.692220e+00 1.359660e+05 3.925377e+09
1.715809e+00 1.319754e+05 3.825876e+09
1.739726e+00 1.281019e+05 3.732923e+09
1.763977e+00 1.243422e+05 3.665766e+09
1.788566e+00 1.206928e+05 3.602711e+09
1.813498e+00 1.171506e+05 3.514005e+09
1.838777e+00 1.137123e+05 3.452914e+09
1.864409e+00 1.103604e+05 3.372041e+09
1.890397e+00 1.069507e+05 3.275442e+09
1.916748e+00 1.036464e+05 3.203077e+09
1.943467e+00 1.004442e+05 3.131494e+09
1.970558e+00 9.734092e+04 3.061419e+09
1.998026e+00 9.433353e+04 2.987992e+09
2.025878e+00 9.141907e+04 2.914096e+09
2.054117e+00 8.859467e+04 2.845870e+09
2.082751e+00 8.585753e+04 2.786643e+09
2.111783e+00 8.320497e+04 2.726365e+09
2.141220e+00 8.063436e+04 2.672615e+09
2.171068e+00 7.814319e+04 2.620927e+09
2.201331e+00 7.572899e+04 2.567734e+09
2.232016e+00 7.338938e+04 2.509507e+09
2.263130e+00 7.112774e+04 2.440727e+09
2.294676e+00 6.895710e+04 2.386714e+09
2.326663e+00 6.685280e+04 2.334780e+09
2.359095e+00 6.481282e+04 2.280176e+09
2.391980e+00 6.293410e+04 2.230525e+09
2.425323e+00 6.115387e+04 2.170193e+09
2.459130e+00 5.942409e+04 2.108353e+09
2.493409e+00 5.774332e+04 2.061107e+09
2.528166e+00 5.611018e+04 2.017249e+09
2.563407e+00 5.452331e+04 1.973886e+09
2.599140e+00 5.298140e+04 1.934749e+09
2.635371e+00 5.148318e+04 1.898022e+09
2.672106e+00 5.002739e+04 1.861859e+09
2.709354e+00 4.861528e+04 1.824884e+09
2.747121e+00 4.724749e+04 1.780969e+09
2.785414e+00 4.591822e+04 1.740506e+09
2.824241e+00 4.462639e+04 1.708029e+09
2.863610e+00 4.337093e+04 1.669984e+09
2.903527e+00 4.215083e+04 1.632643e+09
2.944000e+00 4.096508e+04 1.595163e+09
2.985038e+00 3.981272e+04 1.561942e+09
3.026648e+00 3.869280e+04 1.529019e+09
3.068838e+00 3.760442e+04 1.495929e+09
3.111616e+00 3.654668e+04 1.469718e+09
3.154990e+00 3.551872e+04 1.439341e+09
3.198969e+00 3.449073e+04 1.414026e+09
3.243561e+00 3.341630e+04 1.381011e+09
3.288774e+00 3.237535e+04 1.353183e+09
3.334618e+00 3.136683e+04 1.332259e+09
3.381101e+00 3.038973e+04 1.304715e+09
3.428231e+00 2.944307e+04 1.277047e+09
3.476019e+00 2.852591e+04 1.254196e+09
3.524473e+00 2.763733e+04 1.234011e+09
3.573602e+00 2.677643e+04 1.204979e+09
3.623416e+00 2.594235e+04 1.182113e+09
3.673925e+00 2.513426e+04 1.162420e+09
3.725137e+00 2.435134e+04 1.142497e+09
3.777064e+00 2.359282e+04 1.119928e+09
3.829714e+00 2.285793e+04 1.100663e+09
3.883098e+00 2.214593e+04 1.080534e+09
3.937226e+00 2.145611e+04 1.064852e+09
3.992109e+00 2.078779e+04 1.049867e+09
4.047757e+00 2.014249e+04 1.032990e+09
4.104181e+00 1.951803e+04 1.017761e+09
4.161391e+00 1.891293e+04 1.001405e+09
4.219398e+00 1.832660e+04 9.848037e+08
4.278214e+00 1.775847e+04 9.646014e+08
4.337850e+00 1.720795e+04 9.463639e+08
4.398317e+00 1.667451e+04 9.292570e+08
4.459628e+00 1.615762e+04 9.154943e+08
4.521792e+00 1.565677e+04 9.023114e+08
4.584824e+00 1.517144e+04 8.852665e+08
4.648734e+00 1.470117e+04 8.700861e+08
4.713535e+00 1.424549e+04 8.579271e+08
4.779239e+00 1.380394e+04 8.462056e+08
4.845859e+00 1.337609e+04 8.322729e+08
4.913407e+00 1.296150e+04 8.197173e+08
4.981898e+00 1.255977e+04 8.074561e+08
5.051342e+00 1.217051e+04 7.959424e+08
5.121755e+00 1.179331e+04 7.825809e+08
5.193150e+00 1.143103e+04 7.703875e+08
5.265540e+00 1.109332e+04 7.549789e+08
5.338938e+00 1.076559e+04 7.425017e+08
5.413360e+00 1.044755e+04 7.309982e+08
5.488820e+00 1.013892e+04 7.191680e+08
5.565331e+00 9.839406e+03 7.069960e+08
5.642908e+00 9.548749e+03 6.955959e+08
5.721568e+00 9.266684e+03 6.838955e+08
5.801323e+00 8.992956e+03 6.724417e+08
5.882190e+00 8.727320e+03 6.613633e+08
5.964185e+00 8.470431e+03 6.501565e+08
6.047322e+00 8.222800e+03 6.387921e+08
6.131619e+00 7.982409e+03 6.278013e+08
6.217090e+00 7.749045e+03 6.158397e+08
6.303753e+00 7.522504e+03 6.045892e+08
6.391624e+00 7.302586e+03 5.940054e+08
6.480720e+00 7.089096e+03 5.834589e+08
6.571058e+00 6.881849e+03 5.726016e+08
6.662655e+00 6.680660e+03 5.628115e+08
6.755528e+00 6.485353e+03 5.524192e+08
6.849697e+00 6.295755e+03 5.411466e+08
6.945178e+00 6.111701e+03 5.318155e+08
7.041990e+00 5.933027e+03 5.208552e+08
7.140151e+00 5.759577e+03 5.117858e+08
7.239681e+00 5.591197e+03 5.016948e+08
7.340598e+00 5.427741e+03 4.918418e+08
7.442922e+00 5.269062e+03 4.817651e+08
7.546673e+00 5.115023e+03 4.708147e+08
7.651869e+00 4.965487e+03 4.609130e+08
7.758532e+00 4.820323e+03 4.518701e+08
7.866682e+00 4.679402e+03 4.421607e+08
7.976339e+00 4.542602e+03 4.320684e+08
8.087525e+00 4.409801e+03 4.232237e+08
8.200261e+00 4.280882e+03 4.143392e+08
8.314568e+00 4.155732e+03 4.059577e+08
8.430468e+00 4.034240e+03 3.968516e+08
8.547985e+00 3.916301e+03 3.879778e+08
8.667139e+00 3.801809e+03 3.785607e+08
8.787954e+00 3.690665e+03 3.694145e+08
8.910453e+00 3.582770e+03 3.614749e+08
9.034660e+00 3.478029e+03 3.531185e+08
9.160598e+00 3.376350e+03 3.440327e+08
9.288292e+00 3.277518e+03 3.358750e+08
9.417766e+00 3.172062e+03 3.267514e+08
9.549045e+00 3.070003e+03 3.187555e+08
9.682153e+00 2.971233e+03 3.113392e+08
9.817117e+00 2.875645e+03 3.033969e+08
9.953962e+00 2.783136e+03 2.960533e+08
1.009272e+01 2.693607e+03 2.885099e+08
1.023340e+01 2.606963e+03 2.807450e+08
1.037605e+01 2.523109e+03 2.731677e+08
1.052069e+01 2.445416e+03 2.662886e+08
1.066734e+01 2.372222e+03 2.601846e+08
1.081604e+01 2.301222e+03 2.528857e+08
1.096681e+01 2.232350e+03 2.462537e+08
1.111968e+01 2.165544e+03 2.400538e+08
1.127468e+01 2.100739e+03 2.340068e+08
1.143184e+01 2.037877e+03 2.273960e+08
1.159120e+01 1.976899e+03 2.202129e+08
1.175277e+01 1.917749e+03 2.139040e+08
1.191660e+01 1.860371e+03 2.074979e+08
1.208271e+01 1.804713e+03 2.012236e+08
1.225114e+01 1.750723e+03 1.951206e+08
1.242191e+01 1.698350e+03 1.891425e+08
1.259506e+01 1.647546e+03 1.831501e+08
1.277063e+01 1.598694e+03 1.772251e+08
1.294865e+01 1.551501e+03 1.717781e+08
1.312915e+01 1.505700e+03 1.663693e+08
1.331216e+01 1.461252e+03 1.614395e+08
1.349772e+01 1.418117e+03 1.564440e+08
1.368587e+01 1.376254e+03 1.515312e+08
1.387665e+01 1.335628e+03 1.460794e+08
1.407008e+01 1.296363e+03 1.414209e+08
1.426621e+01 1.258692e+03 1.372399e+08
1.446507e+01 1.222117e+03 1.329767e+08
1.466671e+01 1.186605e+03 1.286867e+08
1.487115e+01 1.152126e+03 1.246003e+08
1.507845e+01 1.118650e+03 1.206015e+08
1.528864e+01 1.086147e+03 1.169097e+08
1.550175e+01 1.054589e+03 1.132300e+08
1.571784e+01 1.023949e+03 1.096198e+08
1.593694e+01 9.941995e+02 1.062849e+08
1.615909e+01 9.653153e+02 1.028330e+08
1.638434e+01 9.372709e+02 9.952120e+07
1.661273e+01 9.100420e+02 9.642273e+07
1.684430e+01 8.836047e+02 9.358058e+07
1.707910e+01 8.579360e+02 9.062895e+07
1.731717e+01 8.330136e+02 8.773927e+07
1.755856e+01 8.088158e+02 8.487904e+07
1.780332e+01 7.853215e+02 8.210915e+07
1.805149e+01 7.625102e+02 7.939723e+07
1.830312e+01 7.403620e+02 7.678301e+07
1.855825e+01 7.188577e+02 7.425294e+07
1.881694e+01 6.979785e+02 7.183763e+07
1.907924e+01 6.777062e+02 6.949946e+07
1.934520e+01 6.587358e+02 6.722592e+07
1.961486e+01 6.406226e+02 6.514867e+07
1.988828e+01 6.230080e+02 6.304592e+07
2.016551e+01 6.058781e+02 6.096590e+07
2.044661e+01 5.892197e+02 5.906292e+07
2.073162e+01 5.730197e+02 5.719408e+07
2.102061e+01 5.572655e+02 5.540212e+07
2.131362e+01 5.419448e+02 5.368078e+07
2.161073e+01 5.270457e+02 5.190442e+07
2.191197e+01 5.125566e+02 5.031369e+07
2.221741e+01 4.984662e+02 4.878731e+07
2.252711e+01 4.847635e+02 4.729175e+07
2.284112e+01 4.714378e+02 4.584464e+07
2.315951e+01 4.584787e+02 4.437891e+07
2.348235e+01 4.458762e+02 4.295145e+07
2.380968e+01 4.336205e+02 4.159047e+07
2.414157e+01 4.217019e+02 4.020997e+07
2.447809e+01 4.101111e+02 3.887015e+07
2.481930e+01 3.987342e+02 3.763001e+07
2.516527e+01 3.870775e+02 3.642303e+07
2.551606e+01 3.757616e+02 3.528331e+07
2.587174e+01 3.647766e+02 3.415002e+07
2.623238e+01 3.541126e+02 3.305314e+07
2.659804e+01 3.437604e+02 3.199139e+07
2.696881e+01 3.337109e+02 3.096873e+07
2.734474e+01 3.239551e+02 3.001656e+07
2.772591e+01 3.144846e+02 2.906107e+07
2.811239e+01 3.052909e+02 2.813933e+07
2.850426e+01 2.963660e+02 2.722107e+07
2.890160e+01 2.877020e+02 2.638765e+07
2.930447e+01 2.792913e+02 2.554700e+07
2.971296e+01 2.711265e+02 2.477854e+07
3.012714e+01 2.632003e+02 2.400383e+07
3.054710e+01 2.555059e+02 2.325444e+07
3.097291e+01 2.480364e+02 2.252219e+07
3.140465e+01 2.407853e+02 2.182159e+07
3.184242e+01 2.337462e+02 2.111588e+07
3.228628e+01 2.269128e+02 2.045156e+07
3.273634e+01 2.202792e+02 1.980219e+07
3.319266e+01 2.138396e+02 1.917344e+07
3.365535e+01 2.075882e+02 1.861515e+07
3.412449e+01 2.015195e+02 1.803392e+07
3.460016e+01 1.956283e+02 1.748727e+07
3.508247e+01 1.899093e+02 1.692764e+07
3.557150e+01 1.843575e+02 1.633256e+07
3.606735e+01 1.789680e+02 1.580754e+07
3.657011e+01 1.737360e+02 1.530724e+07
3.707988e+01 1.686570e+02 1.480971e+07
3.759675e+01 1.637265e+02 1.434013e+07
3.812083e+01 1.589401e+02 1.387960e+07
3.865221e+01 1.542937e+02 1.343020e+07
3.919100e+01 1.497830e+02 1.301681e+07
3.973730e+01 1.454043e+02 1.260397e+07
4.029122e+01 1.411535e+02 1.221953e+07
4.085286e+01 1.370271e+02 1.183745e+07
4.142232e+01 1.330212e+02 1.145103e+07
4.199973e+01 1.291325e+02 1.106472e+07
4.258518e+01 1.253574e+02 1.070796e+07
4.317880e+01 1.216927e+02 1.036797e+07
4.378069e+01 1.181352e+02 1.005520e+07
4.439097e+01 1.146816e+02 9.751650e+06
4.500975e+01 1.113290e+02 9.457264e+06
4.563716e+01 1.080744e+02 9.171444e+06
4.627332e+01 1.049150e+02 8.867817e+06
4.691835e+01 1.018479e+02 8.585902e+06
4.757236e+01 9.887051e+01 8.317393e+06
4.823549e+01 9.598013e+01 8.064383e+06
4.890787e+01 9.317426e+01 7.814921e+06
4.958962e+01 9.044409e+01 7.574886e+06
5.028087e+01 8.766241e+01 7.332978e+06
5.098176e+01 8.496631e+01 7.095313e+06
5.169242e+01 8.235316e+01 6.864997e+06
5.241298e+01 7.982040e+01 6.645337e+06
5.314359e+01 7.736557e+01 6.435546e+06
5.388438e+01 7.498626e+01 6.232378e+06
5.463550e+01 7.268015e+01 6.035624e+06
5.539709e+01 7.044498e+01 5.845082e+06
5.616930e+01 6.827858e+01 5.658419e+06
5.695227e+01 6.617882e+01 5.479042e+06
5.774615e+01 6.414367e+01 5.309357e+06
5.855110e+01 6.207517e+01 5.148051e+06
5.936727e+01 5.998896e+01 4.979064e+06
6.019482e+01 5.797306e+01 4.821946e+06
6.103390e+01 5.602510e+01 4.681095e+06
6.188468e+01 5.414279e+01 4.543427e+06
6.274732e+01 5.232390e+01 4.398368e+06
6.362198e+01 5.056629e+01 4.259724e+06
6.450884e+01 4.900559e+01 4.130347e+06
6.540806e+01 4.757035e+01 4.005637e+06
6.631981e+01 4.617715e+01 3.880063e+06
6.724427e+01 4.484510e+01 3.754527e+06
6.818162e+01 4.355459e+01 3.638057e+06
6.913204e+01 4.230122e+01 3.520771e+06
7.009570e+01 4.108392e+01 3.406971e+06
7.107280e+01 3.990166e+01 3.296732e+06
7.206351e+01 3.875342e+01 3.190059e+06
7.306804e+01 3.763822e+01 3.090153e+06
7.408657e+01 3.655513e+01 2.994005e+06
7.511929e+01 3.543586e+01 2.901013e+06
7.616642e+01 3.434637e+01 2.808231e+06
7.722814e+01 3.329038e+01 2.718417e+06
7.830465e+01 3.227427e+01 2.631475e+06
7.939618e+01 3.131696e+01 2.548564e+06
8.050292e+01 3.038806e+01 2.467320e+06
8.162509e+01 2.948671e+01 2.390771e+06
8.276289e+01 2.861212e+01 2.316598e+06
8.391656e+01 2.776347e+01 2.244725e+06
8.508632e+01 2.694001e+01 2.175083e+06
8.627237e+01 2.614098e+01 2.106528e+06
8.747496e+01 2.536565e+01 2.040364e+06
8.869432e+01 2.461333e+01 1.977772e+06
8.993067e+01 2.388334e+01 1.916130e+06
9.118425e+01 2.317500e+01 1.854907e+06
9.245531e+01 2.248768e+01 1.795755e+06
9.374409e+01 2.182075e+01 1.738773e+06
9.505083e+01 2.117360e+01 1.683185e+06
9.637579e+01 2.054566e+01 1.629151e+06
9.771921e+01 1.993635e+01 1.577204e+06
9.908137e+01 1.934511e+01 1.527847e+06
1.004625e+02 1.877142e+01 1.479928e+06
1.018629e+02 1.821474e+01 1.432268e+06
1.032828e+02 1.767458e+01 1.389757e+06
1.047225e+02 1.715044e+01 1.348637e+06
1.061823e+02 1.664186e+01 1.307396e+06
1.076624e+02 1.614836e+01 1.266236e+06
1.091632e+02 1.566950e+01 1.225831e+06
1.106848e+02 1.520484e+01 1.186979e+06
1.122277e+02 1.475397e+01 1.150620e+06
1.137921e+02 1.431648e+01 1.115325e+06
1.153783e+02 1.389196e+01 1.081553e+06
1.169866e+02 1.348003e+01 1.048748e+06
1.186174e+02 1.308033e+01 1.016491e+06
1.202708e+02 1.269248e+01 9.854837e+05
1.219473e+02 1.231613e+01 9.545376e+05
1.236472e+02 1.195095e+01 9.262153e+05
1.253708e+02 1.159660e+01 8.981856e+05
1.271184e+02 1.125276e+01 8.697835e+05
1.288904e+02 1.091912e+01 8.428090e+05
1.306870e+02 1.059537e+01 8.168329e+05
1.325087e+02 1.028123e+01 7.914672e+05
1.343558e+02 9.976407e+00 7.667893e+05
1.362287e+02 9.682307e+00 7.428711e+05
1.381276e+02 9.400958e+00 7.205168e+05
1.400531e+02 9.127791e+00 6.998462e+05
1.420053e+02 8.862569e+00 6.784384e+05
1.439848e+02 8.605059e+00 6.565844e+05
1.459919e+02 8.355037e+00 6.354343e+05
1.480269e+02 8.112286e+00 6.160952e+05
1.500903e+02 7.876593e+00 5.967327e+05
1.521825e+02 7.647754e+00 5.777685e+05
1.543038e+02 7.425569e+00 5.594070e+05
1.564548e+02 7.209844e+00 5.416338e+05
1.586357e+02 7.000391e+00 5.256504e+05
1.608469e+02 6.797028e+00 5.101389e+05
1.630891e+02 6.599578e+00 4.950853e+05
1.653624e+02 6.407868e+00 4.804761e+05
1.676675e+02 6.221732e+00 4.662982e+05
1.700047e+02 6.041007e+00 4.525388e+05
1.723745e+02 5.865536e+00 4.388301e+05
1.747773e+02 5.695167e+00 4.253859e+05
1.772136e+02 5.529749e+00 4.122627e+05
1.796838e+02 5.369141e+00 3.994864e+05
1.821885e+02 5.213201e+00 3.872086e+05
1.847281e+02 5.061794e+00 3.751094e+05
1.873032e+02 4.914788e+00 3.634846e+05
1.899141e+02 4.772055e+00 3.522200e+05
1.925614e+02 4.633471e+00 3.412670e+05
1.952456e+02 4.498914e+00 3.305635e+05
1.979672e+02 4.368269e+00 3.201936e+05
2.007267e+02 4.245867e+00 3.101119e+05
2.035248e+02 4.129229e+00 3.003477e+05
2.063618e+02 4.015799e+00 2.908909e+05
2.092383e+02 3.905487e+00 2.817710e+05
2.121550e+02 3.798208e+00 2.729836e+05
2.151123e+02 3.693879e+00 2.644470e+05
2.181109e+02 3.592419e+00 2.561770e+05
2.211512e+02 3.493748e+00 2.481423e+05
2.242340e+02 3.397789e+00 2.403636e+05
2.273597e+02 3.304469e+00 2.330160e+05
2.305289e+02 3.213714e+00 2.258931e+05
2.337424e+02 3.125454e+00 2.189878e+05
2.370006e+02 3.039620e+00 2.122937e+05
2.403043e+02 2.956145e+00 2.058042e+05
2.436540e+02 2.874965e+00 1.995131e+05
2.470504e+02 2.796016e+00 1.934143e+05
2.504942e+02 2.719238e+00 1.875019e+05
2.539859e+02 2.644570e+00 1.817702e+05
2.575263e+02 2.571953e+00 1.762138e+05
2.611161e+02 2.501333e+00 1.708272e+05
2.647559e+02 2.432654e+00 1.656053e+05
2.684465e+02 2.365862e+00 1.605431e+05
2.721885e+02 2.300905e+00 1.556355e+05
2.759826e+02 2.237734e+00 1.508780e+05
2.798297e+02 2.176298e+00 1.462473e+05
2.837304e+02 2.116551e+00 1.417372e+05
2.876854e+02 2.058446e+00 1.374694e+05
2.916956e+02 2.001937e+00 1.333185e+05
2.957617e+02 1.946981e+00 1.292829e+05
2.998844e+02 1.893534e+00 1.253695e+05
3.040646e+02 1.841557e+00 1.215746e+05
3.083031e+02 1.791007e+00 1.178945e+05
3.126007e+02 1.741846e+00 1.143396e+05
3.169582e+02 1.690844e+00 1.110162e+05
3.213764e+02 1.639206e+00 1.077764e+05
3.258562e+02 1.588219e+00 1.046163e+05
3.303985e+02 1.538818e+00 1.015489e+05
3.350041e+02 1.490955e+00 9.856620e+04
3.396739e+02 1.444582e+00 9.566330e+04
3.444087e+02 1.399651e+00 9.272122e+04
3.492096e+02 1.356119e+00 8.982544e+04
3.540774e+02 1.313941e+00 8.715553e+04
3.590130e+02 1.273076e+00 8.448413e+04
3.640175e+02 1.233483e+00 8.184275e+04
3.690917e+02 1.195121e+00 7.928114e+04
3.742366e+02 1.157953e+00 7.679467e+04
3.794533e+02 1.121942e+00 7.438292e+04
3.847427e+02 1.087051e+00 7.204692e+04
3.901058e+02 1.053246e+00 6.978428e+04
3.955436e+02 1.020493e+00 6.759269e+04
4.010573e+02 9.887588e-01 6.546994e+04
4.066478e+02 9.580119e-01 6.341646e+04
4.123163e+02 9.282217e-01 6.147394e+04
4.180637e+02 8.993584e-01 5.959093e+04
4.238913e+02 8.713930e-01 5.776560e+04
4.298001e+02 8.442977e-01 5.599619e+04
4.357913e+02 8.180454e-01 5.428098e+04
4.418660e+02 7.926098e-01 5.260324e+04
4.480254e+02 7.679655e-01 5.096378e+04
4.542706e+02 7.440879e-01 4.937542e+04
4.606029e+02 7.209530e-01 4.783656e+04
4.670234e+02 6.985379e-01 4.634568e+04
4.735335e+02 6.768200e-01 4.490126e+04
4.801343e+02 6.557778e-01 4.350186e+04
4.868271e+02 6.353901e-01 4.214608e+04
4.936132e+02 6.156366e-01 4.083255e+04
5.004939e+02 5.964975e-01 3.955997e+04
5.074705e+02 5.779538e-01 3.832919e+04
5.145444e+02 5.599868e-01 3.716436e+04
5.217169e+02 5.425788e-01 3.603492e+04
5.289893e+02 5.257121e-01 3.493981e+04
5.363631e+02 5.093761e-01 3.387798e+04
5.438397e+02 4.942341e-01 3.284842e+04
5.514206e+02 4.795424e-01 3.185015e+04
5.591071e+02 4.652877e-01 3.088221e+04
5.669007e+02 4.514571e-01 2.994369e+04
5.748030e+02 4.380377e-01 2.903370e+04
5.828155e+02 4.250175e-01 2.815136e+04
5.909396e+02 4.123846e-01 2.729373e+04
5.991770e+02 4.001274e-01 2.646196e+04
6.075292e+02 3.882347e-01 2.565266e+04
6.159978e+02 3.766957e-01 2.486811e+04
6.245845e+02 3.654998e-01 2.410756e+04
6.332908e+02 3.546370e-01 2.337028e+04
6.421186e+02 3.440971e-01 2.263809e+04
6.510694e+02 3.338707e-01 2.194766e+04
6.601449e+02 3.239484e-01 2.130196e+04
6.693470e+02 3.143212e-01 2.065904e+04
6.786773e+02 3.049802e-01 2.002771e+04
6.881377e+02 2.959170e-01 1.940874e+04
6.977300e+02 2.871233e-01 1.883180e+04
7.074559e+02 2.785910e-01 1.826725e+04
7.173175e+02 2.703125e-01 1.771956e+04
7.273165e+02 2.622801e-01 1.718110e+04
7.374549e+02 2.544865e-01 1.665896e+04
7.477346e+02 2.469247e-01 1.615269e+04
7.581576e+02 2.395876e-01 1.566181e+04
7.687260e+02 2.324688e-01 1.518332e+04
7.794416e+02 2.255615e-01 1.470331e+04
7.903066e+02 2.188596e-01 1.420722e+04
8.013230e+02 2.123570e-01 1.374125e+04
8.124930e+02 2.060477e-01 1.331658e+04
8.238187e+02 1.999259e-01 1.292572e+04
8.353023e+02 1.939861e-01 1.254779e+04
8.469460e+02 1.882229e-01 1.217971e+04
8.587519e+02 1.826310e-01 1.182243e+04
8.707225e+02 1.772054e-01 1.146521e+04
8.828599e+02 1.719410e-01 1.111112e+04
8.951665e+02 1.668331e-01 1.076588e+04
9.076446e+02 1.618770e-01 1.043097e+04
9.202967e+02 1.570683e-01 1.010649e+04
9.331251e+02 1.524025e-01 9.792091e+03
9.461324e+02 1.478753e-01 9.487478e+03
9.593209e+02 1.434827e-01 9.192342e+03
9.726934e+02 1.392207e-01 8.906387e+03
9.862522e+02 1.350854e-01 8.636344e+03
1.000000e+03 1.310729e-01 8.373926e+03
