# Energy(MeV) Phi16_Planar Phi84_Planar
1.000000e-01 9.420319e+11 3.144926e+12
1.018629e-01 9.132593e+11 3.032740e+12
1.037605e-01 8.857189e+11 2.924491e+12
1.056935e-01 8.586322e+11 2.820022e+12
1.076624e-01 8.322195e+11 2.719284e+12
1.096681e-01 8.058935e+11 2.622105e+12
1.117111e-01 7.804003e+11 2.528278e+12
1.137921e-01 7.557137e+11 2.437447e+12
1.159120e-01 7.321313e+11 2.350738e+12
1.180713e-01 7.094030e+11 2.267031e+12
1.202708e-01 6.874754e+11 2.186087e+12
1.225114e-01 6.665373e+11 2.107758e+12
1.247936e-01 6.462575e+11 2.032236e+12
1.271184e-01 6.265947e+11 1.959420e+12
1.294865e-01 6.075303e+11 1.889213e+12
1.318987e-01 5.890459e+11 1.821522e+12
1.343558e-01 5.711240e+11 1.756256e+12
1.368587e-01 5.537473e+11 1.693328e+12
1.394083e-01 5.366943e+11 1.632656e+12
1.420053e-01 5.201039e+11 1.574157e+12
1.446507e-01 5.040264e+11 1.517754e+12
1.473454e-01 4.884458e+11 1.463372e+12
1.500903e-01 4.733468e+11 1.411512e+12
1.528864e-01 4.587147e+11 1.361641e+12
1.557345e-01 4.445348e+11 1.313532e+12
1.586357e-01 4.308284e+11 1.267123e+12
1.615909e-01 4.175718e+11 1.221747e+12
1.646012e-01 4.047231e+11 1.177841e+12
1.676675e-01 3.922699e+11 1.135512e+12
1.707910e-01 3.800152e+11 1.094705e+12
1.739726e-01 3.681120e+11 1.055365e+12
1.772136e-01 3.567816e+11 1.017438e+12
1.805149e-01 3.459506e+11 9.807529e+11
1.838777e-01 3.353201e+11 9.453659e+11
1.873032e-01 3.249905e+11 9.112558e+11
1.907924e-01 3.150199e+11 8.780088e+11
1.943467e-01 3.053553e+11 8.461152e+11
1.979672e-01 2.962606e+11 8.157597e+11
2.016551e-01 2.874386e+11 7.866750e+11
2.054117e-01 2.787665e+11 7.586489e+11
2.092383e-01 2.701236e+11 7.315206e+11
2.131362e-01 2.617488e+11 7.055640e+11
2.171068e-01 2.536336e+11 6.805283e+11
2.211512e-01 2.458921e+11 6.563628e+11
2.252711e-01 2.384428e+11 6.330332e+11
2.294676e-01 2.312238e+11 6.105328e+11
2.337424e-01 2.242503e+11 5.888322e+11
2.380968e-01 2.174870e+11 5.679029e+11
2.425323e-01 2.109022e+11 5.477368e+11
2.470504e-01 2.042190e+11 5.284150e+11
2.516527e-01 1.977668e+11 5.097691e+11
2.563407e-01 1.917185e+11 4.917069e+11
2.611161e-01 1.858553e+11 4.742847e+11
2.659804e-01 1.801714e+11 4.574798e+11
2.709354e-01 1.746615e+11 4.412704e+11
2.759826e-01 1.693381e+11 4.255659e+11
2.811239e-01 1.641880e+11 4.101984e+11
2.863610e-01 1.591946e+11 3.954570e+11
2.916956e-01 1.543530e+11 3.814010e+11
2.971296e-01 1.496587e+11 3.678331e+11
3.026648e-01 1.451071e+11 3.547322e+11
3.083031e-01 1.404572e+11 3.420818e+11
3.140465e-01 1.359546e+11 3.297926e+11
3.198969e-01 1.315963e+11 3.178859e+11
3.258562e-01 1.273778e+11 3.064862e+11
3.319266e-01 1.232946e+11 2.958161e+11
3.381101e-01 1.193423e+11 2.854391e+11
3.444087e-01 1.155167e+11 2.752831e+11
3.508247e-01 1.119380e+11 2.654885e+11
3.573602e-01 1.085746e+11 2.560223e+11
3.640175e-01 1.053122e+11 2.468888e+11
3.707988e-01 1.021480e+11 2.380812e+11
3.777064e-01 9.907877e+10 2.295877e+11
3.847427e-01 9.610181e+10 2.214775e+11
3.919100e-01 9.315230e+10 2.136600e+11
3.992109e-01 9.023074e+10 2.060821e+11
4.066478e-01 8.740081e+10 1.987731e+11
4.142232e-01 8.465964e+10 1.917232e+11
4.219398e-01 8.200445e+10 1.849234e+11
4.298001e-01 7.943254e+10 1.783648e+11
4.378069e-01 7.694129e+10 1.720104e+11
4.459628e-01 7.452818e+10 1.658748e+11
4.542706e-01 7.219076e+10 1.599581e+11
4.627332e-01 6.992664e+10 1.542524e+11
4.713535e-01 6.773354e+10 1.487453e+11
4.801343e-01 6.562169e+10 1.433978e+11
4.890787e-01 6.365384e+10 1.383426e+11
4.981898e-01 6.162550e+10 1.334458e+11
5.074705e-01 5.974613e+10 1.287085e+11
5.169242e-01 5.795263e+10 1.241064e+11
5.265540e-01 5.613825e+10 1.196094e+11
5.363631e-01 5.439567e+10 1.153595e+11
5.463550e-01 5.276810e+10 1.112645e+11
5.565331e-01 5.118924e+10 1.073149e+11
5.669007e-01 4.961749e+10 1.034969e+11
5.774615e-01 4.805833e+10 9.982822e+10
5.882190e-01 4.654818e+10 9.627497e+10
5.991770e-01 4.512188e+10 9.270178e+10
6.103390e-01 4.374875e+10 8.935581e+10
6.217090e-01 4.242214e+10 8.613062e+10
6.332908e-01 4.113576e+10 8.302185e+10
6.450884e-01 3.988839e+10 8.006094e+10
6.571058e-01 3.866825e+10 7.720532e+10
6.693470e-01 3.746529e+10 7.444821e+10
6.818162e-01 3.630343e+10 7.180562e+10
6.945178e-01 3.522649e+10 6.927438e+10
7.074559e-01 3.418238e+10 6.683237e+10
7.206351e-01 3.312460e+10 6.447645e+10
7.340598e-01 3.207934e+10 6.219807e+10
7.477346e-01 3.106726e+10 5.997779e+10
7.616642e-01 3.008711e+10 5.779162e+10
7.758532e-01 2.913789e+10 5.572753e+10
7.903066e-01 2.823955e+10 5.375077e+10
8.050292e-01 2.737934e+10 5.177916e+10
8.200261e-01 2.655126e+10 4.995429e+10
8.353023e-01 2.573757e+10 4.818310e+10
8.508632e-01 2.495397e+10 4.645021e+10
8.667139e-01 2.418312e+10 4.477964e+10
8.828599e-01 2.345755e+10 4.316851e+10
8.993067e-01 2.274345e+10 4.161642e+10
9.160598e-01 2.205102e+10 4.018776e+10
9.331251e-01 2.137966e+10 3.878849e+10
9.505083e-01 2.072875e+10 3.740341e+10
9.682153e-01 2.009765e+10 3.606041e+10
9.862522e-01 1.948577e+10 3.474232e+10
1.004625e+00 1.889252e+10 3.348491e+10
1.023340e+00 1.831543e+10 3.230351e+10
1.042404e+00 1.774019e+10 3.113940e+10
1.061823e+00 1.719036e+10 3.003648e+10
1.081604e+00 1.665299e+10 2.897263e+10
1.101753e+00 1.613267e+10 2.794966e+10
1.122277e+00 1.563068e+10 2.696489e+10
1.143184e+00 1.514988e+10 2.600823e+10
1.164481e+00 1.468001e+10 2.510001e+10
1.186174e+00 1.420416e+10 2.421894e+10
1.208271e+00 1.375755e+10 2.336398e+10
1.230780e+00 1.332894e+10 2.253573e+10
1.253708e+00 1.292827e+10 2.172873e+10
1.277063e+00 1.254006e+10 2.094016e+10
1.300854e+00 1.214953e+10 2.018614e+10
1.325087e+00 1.177830e+10 1.945580e+10
1.349772e+00 1.141841e+10 1.875120e+10
1.374917e+00 1.106952e+10 1.808596e+10
1.400531e+00 1.072164e+10 1.744896e+10
1.426621e+00 1.037720e+10 1.684234e+10
1.453198e+00 1.004383e+10 1.624648e+10
1.480269e+00 9.729397e+09 1.568485e+10
1.507845e+00 9.416310e+09 1.511895e+10
1.535935e+00 9.123418e+09 1.456931e+10
1.564548e+00 8.842421e+09 1.404057e+10
1.593694e+00 8.570080e+09 1.353623e+10
1.623382e+00 8.306127e+09 1.306148e+10
1.653624e+00 8.050697e+09 1.259851e+10
1.684430e+00 7.804872e+09 1.216336e+10
1.715809e+00 7.566554e+09 1.173160e+10
1.747773e+00 7.338767e+09 1.132062e+10
1.780332e+00 7.112116e+09 1.091741e+10
1.813498e+00 6.890956e+09 1.052499e+10
1.847281e+00 6.681101e+09 1.014670e+10
1.881694e+00 6.475573e+09 9.785621e+09
1.916748e+00 6.276212e+09 9.435001e+09
1.952456e+00 6.081725e+09 9.106683e+09
1.988828e+00 5.891335e+09 8.782843e+09
2.025878e+00 5.709962e+09 8.467394e+09
2.063618e+00 5.531694e+09 8.162369e+09
2.102061e+00 5.362151e+09 7.874158e+09
2.141220e+00 5.191775e+09 7.594883e+09
2.181109e+00 5.033469e+09 7.322321e+09
2.221741e+00 4.886268e+09 7.064980e+09
2.263130e+00 4.735962e+09 6.810782e+09
2.305289e+00 4.583934e+09 6.561583e+09
2.348235e+00 4.433966e+09 6.330658e+09
2.391980e+00 4.291341e+09 6.110113e+09
2.436540e+00 4.155834e+09 5.884362e+09
2.481930e+00 4.026407e+09 5.676021e+09
2.528166e+00 3.898308e+09 5.477381e+09
2.575263e+00 3.775231e+09 5.289237e+09
2.623238e+00 3.656898e+09 5.099450e+09
2.672106e+00 3.543646e+09 4.920515e+09
2.721885e+00 3.434129e+09 4.752294e+09
2.772591e+00 3.327785e+09 4.585000e+09
2.824241e+00 3.223614e+09 4.421969e+09
2.876854e+00 3.121063e+09 4.265112e+09
2.930447e+00 3.021900e+09 4.111564e+09
2.985038e+00 2.925770e+09 3.971656e+09
3.040646e+00 2.831569e+09 3.839839e+09
3.097291e+00 2.742101e+09 3.698894e+09
3.154990e+00 2.656569e+09 3.564319e+09
3.213764e+00 2.574878e+09 3.437163e+09
3.273634e+00 2.495929e+09 3.312934e+09
3.334618e+00 2.419294e+09 3.196369e+09
3.396739e+00 2.342620e+09 3.079334e+09
3.460016e+00 2.267459e+09 2.967247e+09
3.524473e+00 2.196761e+09 2.866223e+09
3.590130e+00 2.129350e+09 2.765198e+09
3.657011e+00 2.065844e+09 2.666682e+09
3.725137e+00 2.004241e+09 2.572104e+09
3.794533e+00 1.942671e+09 2.482608e+09
3.865221e+00 1.880579e+09 2.398401e+09
3.937226e+00 1.825212e+09 2.317300e+09
4.010573e+00 1.764736e+09 2.235443e+09
4.085286e+00 1.709373e+09 2.159721e+09
4.161391e+00 1.658070e+09 2.085182e+09
4.238913e+00 1.602482e+09 2.012165e+09
4.317880e+00 1.552219e+09 1.943124e+09
4.398317e+00 1.502597e+09 1.876296e+09
4.480254e+00 1.454730e+09 1.811075e+09
4.563716e+00 1.409000e+09 1.749462e+09
4.648734e+00 1.365871e+09 1.688300e+09
4.735335e+00 1.320832e+09 1.629933e+09
4.823549e+00 1.278204e+09 1.574925e+09
4.913407e+00 1.236702e+09 1.518929e+09
5.004939e+00 1.195053e+09 1.468122e+09
5.098176e+00 1.154383e+09 1.417402e+09
5.193150e+00 1.115816e+09 1.369053e+09
5.289893e+00 1.080752e+09 1.322932e+09
5.388438e+00 1.045930e+09 1.279482e+09
5.488820e+00 1.010843e+09 1.238074e+09
5.591071e+00 9.770478e+08 1.196320e+09
5.695227e+00 9.473792e+08 1.155674e+09
5.801323e+00 9.174821e+08 1.116027e+09
5.909396e+00 8.873438e+08 1.078730e+09
6.019482e+00 8.567476e+08 1.043900e+09
6.131619e+00 8.276784e+08 1.010662e+09
6.245845e+00 8.001595e+08 9.771591e+08
6.362198e+00 7.746351e+08 9.440176e+08
6.480720e+00 7.497548e+08 9.128071e+08
6.601449e+00 7.240384e+08 8.830518e+08
6.724427e+00 7.003333e+08 8.539750e+08
6.849697e+00 6.772647e+08 8.256961e+08
6.977300e+00 6.544454e+08 7.981020e+08
7.107280e+00 6.321689e+08 7.715013e+08
7.239681e+00 6.107133e+08 7.464075e+08
7.374549e+00 5.904356e+08 7.219163e+08
7.511929e+00 5.699687e+08 6.973677e+08
7.651869e+00 5.501078e+08 6.741650e+08
7.794416e+00 5.319822e+08 6.524590e+08
7.939618e+00 5.141344e+08 6.314107e+08
8.087525e+00 4.965731e+08 6.104593e+08
8.238187e+00 4.798605e+08 5.902963e+08
8.391656e+00 4.628958e+08 5.709948e+08
8.547985e+00 4.464768e+08 5.523931e+08
8.707225e+00 4.313833e+08 5.349138e+08
8.869432e+00 4.163654e+08 5.173719e+08
9.034660e+00 4.012891e+08 5.004224e+08
9.202967e+00 3.876980e+08 4.841083e+08
9.374409e+00 3.737032e+08 4.680983e+08
9.549045e+00 3.604139e+08 4.528149e+08
9.726934e+00 3.484436e+08 4.381885e+08
9.908137e+00 3.361413e+08 4.242291e+08
1.009272e+01 3.242346e+08 4.108870e+08
1.028073e+01 3.133218e+08 3.977593e+08
1.047225e+01 3.023378e+08 3.854442e+08
1.066734e+01 2.915290e+08 3.729174e+08
1.086606e+01 2.817560e+08 3.613157e+08
1.106848e+01 2.720386e+08 3.499862e+08
1.127468e+01 2.625135e+08 3.386223e+08
1.148472e+01 2.535602e+08 3.276121e+08
1.169866e+01 2.447229e+08 3.174122e+08
1.191660e+01 2.366617e+08 3.076044e+08
1.213859e+01 2.287654e+08 2.981281e+08
1.236472e+01 2.206471e+08 2.886956e+08
1.259506e+01 2.128650e+08 2.794357e+08
1.282970e+01 2.055997e+08 2.705318e+08
1.306870e+01 1.981389e+08 2.619809e+08
1.331216e+01 1.909265e+08 2.536895e+08
1.356015e+01 1.841718e+08 2.458333e+08
1.381276e+01 1.778102e+08 2.380221e+08
1.407008e+01 1.717169e+08 2.305303e+08
1.433219e+01 1.657765e+08 2.234087e+08
1.459919e+01 1.598086e+08 2.163684e+08
1.487115e+01 1.540903e+08 2.096606e+08
1.514819e+01 1.485026e+08 2.031534e+08
1.543038e+01 1.431611e+08 1.967893e+08
1.571784e+01 1.380851e+08 1.906939e+08
1.601064e+01 1.332829e+08 1.846117e+08
1.630891e+01 1.285784e+08 1.787202e+08
1.661273e+01 1.240579e+08 1.733244e+08
1.692220e+01 1.195131e+08 1.679337e+08
1.723745e+01 1.152092e+08 1.626729e+08
1.755856e+01 1.109832e+08 1.574382e+08
1.788566e+01 1.070928e+08 1.525560e+08
1.821885e+01 1.032629e+08 1.475942e+08
1.855825e+01 9.968374e+07 1.429892e+08
1.890397e+01 9.625435e+07 1.386012e+08
1.925614e+01 9.280734e+07 1.342418e+08
1.961486e+01 8.947354e+07 1.300549e+08
1.998026e+01 8.629902e+07 1.259733e+08
2.035248e+01 8.327303e+07 1.220126e+08
2.073162e+01 8.030944e+07 1.184054e+08
2.111783e+01 7.736931e+07 1.148222e+08
2.151123e+01 7.473410e+07 1.112290e+08
2.191197e+01 7.217012e+07 1.078503e+08
2.232016e+01 6.957204e+07 1.044635e+08
2.273597e+01 6.728449e+07 1.011623e+08
2.315951e+01 6.492959e+07 9.806241e+07
2.359095e+01 6.265997e+07 9.507154e+07
2.403043e+01 6.046604e+07 9.199339e+07
2.447809e+01 5.832036e+07 8.914656e+07
2.493409e+01 5.621432e+07 8.645907e+07
2.539859e+01 5.424403e+07 8.378197e+07
2.587174e+01 5.257468e+07 8.112360e+07
2.635371e+01 5.068439e+07 7.852107e+07
2.684465e+01 4.886373e+07 7.605479e+07
2.734474e+01 4.709034e+07 7.360000e+07
2.785414e+01 4.540744e+07 7.124722e+07
2.837304e+01 4.380970e+07 6.896965e+07
2.890160e+01 4.220884e+07 6.674789e+07
2.944000e+01 4.072072e+07 6.463061e+07
2.998844e+01 3.926047e+07 6.258268e+07
3.054710e+01 3.784821e+07 6.058518e+07
3.111616e+01 3.646568e+07 5.868323e+07
3.169582e+01 3.518152e+07 5.679800e+07
3.228628e+01 3.397410e+07 5.505738e+07
3.288774e+01 3.280813e+07 5.335848e+07
3.350041e+01 3.168218e+07 5.169609e+07
3.412449e+01 3.057368e+07 5.008730e+07
3.476019e+01 2.950230e+07 4.857447e+07
3.540774e+01 2.846485e+07 4.712006e+07
3.606735e+01 2.745204e+07 4.573859e+07
3.673925e+01 2.647527e+07 4.429995e+07
3.742366e+01 2.553325e+07 4.288349e+07
3.812083e+01 2.462475e+07 4.152338e+07
3.883098e+01 2.374858e+07 4.022247e+07
3.955436e+01 2.290358e+07 3.894797e+07
4.029122e+01 2.208754e+07 3.770377e+07
4.104181e+01 2.129755e+07 3.651052e+07
4.180637e+01 2.053580e+07 3.540868e+07
4.258518e+01 1.980386e+07 3.429385e+07
4.337850e+01 1.911041e+07 3.319956e+07
4.418660e+01 1.842882e+07 3.223963e+07
4.500975e+01 1.777311e+07 3.123168e+07
4.584824e+01 1.714054e+07 3.028643e+07
4.670234e+01 1.653045e+07 2.936230e+07
4.757236e+01 1.594912e+07 2.841611e+07
4.845859e+01 1.538917e+07 2.750185e+07
4.936132e+01 1.484889e+07 2.665738e+07
5.028087e+01 1.432036e+07 2.580957e+07
5.121755e+01 1.381079e+07 2.500031e+07
5.217169e+01 1.331813e+07 2.422813e+07
5.314359e+01 1.284352e+07 2.351050e+07
5.413360e+01 1.237428e+07 2.281258e+07
5.514206e+01 1.193490e+07 2.211292e+07
5.616930e+01 1.152238e+07 2.142858e+07
5.721568e+01 1.112411e+07 2.076147e+07
5.828155e+01 1.072482e+07 2.011513e+07
5.936727e+01 1.033725e+07 1.948892e+07
6.047322e+01 9.963682e+06 1.888220e+07
6.159978e+01 9.603616e+06 1.831762e+07
6.274732e+01 9.256561e+06 1.776183e+07
6.391624e+01 8.922047e+06 1.719961e+07
6.510694e+01 8.602285e+06 1.665081e+07
6.631981e+01 8.295706e+06 1.615126e+07
6.755528e+01 8.000053e+06 1.567031e+07
6.881377e+01 7.714937e+06 1.519737e+07
7.009570e+01 7.439982e+06 1.472442e+07
7.140151e+01 7.174825e+06 1.427675e+07
7.273165e+01 6.919119e+06 1.382563e+07
7.408657e+01 6.672525e+06 1.338717e+07
7.546673e+01 6.434720e+06 1.296898e+07
7.687260e+01 6.202993e+06 1.256385e+07
7.830465e+01 5.981229e+06 1.217138e+07
7.976339e+01 5.767393e+06 1.180016e+07
8.124930e+01 5.561202e+06 1.142916e+07
8.276289e+01 5.362383e+06 1.106795e+07
8.430468e+01 5.170672e+06 1.072838e+07
8.587519e+01 4.985815e+06 1.039076e+07
8.747496e+01 4.807567e+06 1.006931e+07
8.910453e+01 4.635692e+06 9.764360e+06
9.076446e+01 4.469961e+06 9.472524e+06
9.245531e+01 4.310924e+06 9.185015e+06
9.417766e+01 4.157366e+06 8.911271e+06
9.593209e+01 4.008567e+06 8.644534e+06
9.771921e+01 3.865095e+06 8.378429e+06
9.953962e+01 3.726757e+06 8.129504e+06
1.013939e+02 3.593372e+06 7.877345e+06
1.032828e+02 3.464760e+06 7.636095e+06
1.052069e+02 3.342397e+06 7.400036e+06
1.071668e+02 3.224790e+06 7.172429e+06
1.091632e+02 3.110926e+06 6.954879e+06
1.111968e+02 2.999876e+06 6.739931e+06
1.132683e+02 2.891850e+06 6.530937e+06
1.153783e+02 2.787707e+06 6.328425e+06
1.175277e+02 2.687314e+06 6.132413e+06
1.197171e+02 2.590536e+06 5.942995e+06
1.219473e+02 2.497243e+06 5.759432e+06
1.242191e+02 2.407310e+06 5.581230e+06
1.265332e+02 2.320616e+06 5.409322e+06
1.288904e+02 2.237043e+06 5.245958e+06
1.312915e+02 2.156480e+06 5.088571e+06
1.337373e+02 2.078818e+06 4.934864e+06
1.362287e+02 2.003953e+06 4.778307e+06
1.387665e+02 1.931784e+06 4.628760e+06
1.413516e+02 1.862213e+06 4.484718e+06
1.439848e+02 1.795149e+06 4.345317e+06
1.466671e+02 1.730575e+06 4.211462e+06
1.493993e+02 1.668744e+06 4.081734e+06
1.521825e+02 1.610191e+06 3.956005e+06
1.550175e+02 1.553694e+06 3.834153e+06
1.579053e+02 1.499179e+06 3.716058e+06
1.608469e+02 1.446577e+06 3.601603e+06
1.638434e+02 1.395821e+06 3.490678e+06
1.668956e+02 1.345828e+06 3.383172e+06
1.700047e+02 1.297436e+06 3.285514e+06
1.731717e+02 1.250899e+06 3.188451e+06
1.763977e+02 1.205951e+06 3.091972e+06
1.796838e+02 1.162578e+06 2.997081e+06
1.830312e+02 1.120765e+06 2.905102e+06
1.864409e+02 1.080457e+06 2.815947e+06
1.899141e+02 1.041666e+06 2.734608e+06
1.934520e+02 1.004977e+06 2.655193e+06
1.970558e+02 9.688205e+05 2.573221e+06
2.007267e+02 9.339652e+05 2.493482e+06
2.044661e+02 9.003637e+05 2.416215e+06
2.082751e+02 8.679711e+05 2.341343e+06
2.121550e+02 8.367437e+05 2.269096e+06
2.161073e+02 8.066398e+05 2.199209e+06
2.201331e+02 7.776189e+05 2.131140e+06
2.242340e+02 7.496420e+05 2.064914e+06
2.284112e+02 7.226716e+05 1.999921e+06
2.326663e+02 6.967634e+05 1.937262e+06
2.370006e+02 6.717897e+05 1.877814e+06
2.414157e+02 6.477111e+05 1.820190e+06
2.459130e+02 6.244955e+05 1.764336e+06
2.504942e+02 6.021545e+05 1.710071e+06
2.551606e+02 5.808346e+05 1.657171e+06
2.599140e+02 5.602696e+05 1.605524e+06
2.647559e+02 5.404088e+05 1.555401e+06
2.696881e+02 5.208835e+05 1.506843e+06
2.747121e+02 5.020635e+05 1.459801e+06
2.798297e+02 4.839235e+05 1.415109e+06
2.850426e+02 4.664387e+05 1.372291e+06
2.903527e+02 4.495855e+05 1.330143e+06
2.957617e+02 4.333411e+05 1.289175e+06
3.012714e+02 4.176836e+05 1.249453e+06
3.068838e+02 4.027790e+05 1.210779e+06
3.126007e+02 3.885295e+05 1.173302e+06
3.184242e+02 3.747972e+05 1.136985e+06
3.243561e+02 3.615502e+05 1.101724e+06
3.303985e+02 3.487715e+05 1.067555e+06
3.365535e+02 3.364443e+05 1.034447e+06
3.428231e+02 3.245529e+05 1.002621e+06
3.492096e+02 3.130817e+05 9.715896e+05
3.557150e+02 3.020159e+05 9.417093e+05
3.623416e+02 2.913413e+05 9.129461e+05
3.690917e+02 2.810439e+05 8.847582e+05
3.759675e+02 2.711105e+05 8.572239e+05
3.829714e+02 2.615281e+05 8.308864e+05
3.901058e+02 2.522845e+05 8.054750e+05
3.973730e+02 2.432813e+05 7.803103e+05
4.047757e+02 2.345254e+05 7.564466e+05
4.123163e+02 2.260845e+05 7.333793e+05
4.199973e+02 2.179474e+05 7.111281e+05
4.278214e+02 2.101030e+05 6.896463e+05
4.357913e+02 2.025409e+05 6.684274e+05
4.439097e+02 1.952510e+05 6.481556e+05
4.521792e+02 1.882233e+05 6.284989e+05
4.606029e+02 1.814486e+05 6.094386e+05
4.691835e+02 1.749176e+05 5.909210e+05
4.779239e+02 1.686216e+05 5.728710e+05
4.868271e+02 1.625523e+05 5.552900e+05
4.958962e+02 1.567013e+05 5.379392e+05
5.051342e+02 1.510608e+05 5.216224e+05
5.145444e+02 1.456234e+05 5.060803e+05
5.241298e+02 1.403816e+05 4.909334e+05
5.338938e+02 1.353284e+05 4.760746e+05
5.438397e+02 1.304571e+05 4.616659e+05
5.539709e+02 1.257610e+05 4.476443e+05
5.642908e+02 1.212340e+05 4.339994e+05
5.748030e+02 1.168699e+05 4.206929e+05
5.855110e+02 1.126628e+05 4.077938e+05
5.964185e+02 1.086071e+05 3.949785e+05
6.075292e+02 1.046974e+05 3.825517e+05
6.188468e+02 1.009284e+05 3.704794e+05
6.303753e+02 9.729498e+04 3.587882e+05
6.421186e+02 9.379235e+04 3.477027e+05
6.540806e+02 9.041578e+04 3.369141e+05
6.662655e+02 8.716071e+04 3.269856e+05
6.786773e+02 8.402280e+04 3.173226e+05
6.913204e+02 8.099781e+04 3.077580e+05
7.041990e+02 7.808169e+04 2.986395e+05
7.173175e+02 7.527052e+04 2.898405e+05
7.306804e+02 7.256052e+04 2.812643e+05
7.442922e+02 6.994805e+04 2.728680e+05
7.581576e+02 6.743166e+04 2.645475e+05
7.722814e+02 6.500682e+04 2.564375e+05
7.866682e+02 6.266914e+04 2.485762e+05
8.013230e+02 6.041550e+04 2.409560e+05
8.162509e+02 5.824286e+04 2.335696e+05
8.314568e+02 5.614833e+04 2.263759e+05
8.469460e+02 5.412909e+04 2.195365e+05
8.627237e+02 5.218243e+04 2.128826e+05
8.787954e+02 5.030575e+04 2.063745e+05
8.951665e+02 4.849653e+04 2.000359e+05
9.118425e+02 4.675235e+04 1.939376e+05
9.288292e+02 4.507087e+04 1.880499e+05
9.461324e+02 4.344984e+04 1.823063e+05
9.637579e+02 4.188709e+04 1.768362e+05
9.817117e+02 4.038051e+04 1.715303e+05
1.000000e+03 3.892809e+04 1.663638e+05
