# Energy(MeV) Fluence_Sferica(4Pi)
1.800000e+00 8.514898e+09
1.822942e+00 8.376962e+09
1.846177e+00 8.240448e+09
1.869708e+00 8.105999e+09
1.893539e+00 7.972539e+09
1.917674e+00 7.842788e+09
1.942116e+00 7.715668e+09
1.966870e+00 7.589886e+09
1.991940e+00 7.465571e+09
2.017328e+00 7.343623e+09
2.043041e+00 7.223734e+09
2.069081e+00 7.107293e+09
2.095453e+00 6.991153e+09
2.122162e+00 6.877094e+09
2.149210e+00 6.763438e+09
2.176604e+00 6.652262e+09
2.204346e+00 6.543190e+09
2.232442e+00 6.435446e+09
2.260897e+00 6.329961e+09
2.289714e+00 6.225744e+09
2.318898e+00 6.124028e+09
2.348454e+00 6.024645e+09
2.378387e+00 5.924404e+09
2.408702e+00 5.827226e+09
2.439402e+00 5.730876e+09
2.470495e+00 5.635528e+09
2.501983e+00 5.540646e+09
2.533873e+00 5.448386e+09
2.566169e+00 5.357052e+09
2.598877e+00 5.267737e+09
2.632002e+00 5.180208e+09
2.665549e+00 5.093339e+09
2.699523e+00 5.008591e+09
2.733931e+00 4.924635e+09
2.768777e+00 4.842348e+09
2.804067e+00 4.761196e+09
2.839808e+00 4.681832e+09
2.876003e+00 4.603036e+09
2.912660e+00 4.525775e+09
2.949784e+00 4.449833e+09
2.987382e+00 4.375273e+09
3.025458e+00 4.302042e+09
3.064020e+00 4.229474e+09
3.103074e+00 4.157962e+09
3.142625e+00 4.088030e+09
3.182680e+00 4.019177e+09
3.223246e+00 3.950887e+09
3.264329e+00 3.882962e+09
3.305936e+00 3.817347e+09
3.348072e+00 3.752185e+09
3.390746e+00 3.688851e+09
3.433964e+00 3.625691e+09
3.477733e+00 3.563505e+09
3.522059e+00 3.502837e+09
3.566951e+00 3.443071e+09
3.612415e+00 3.383758e+09
3.658458e+00 3.325051e+09
3.705088e+00 3.267587e+09
3.752312e+00 3.211518e+09
3.800138e+00 3.156024e+09
3.848574e+00 3.101479e+09
3.897627e+00 3.047833e+09
3.947306e+00 2.994877e+09
3.997617e+00 2.943257e+09
4.048570e+00 2.891794e+09
4.100173e+00 2.841486e+09
4.152433e+00 2.792405e+09
4.205359e+00 2.744124e+09
4.258959e+00 2.695882e+09
4.313243e+00 2.649084e+09
4.368219e+00 2.602302e+09
4.423896e+00 2.556423e+09
4.480282e+00 2.511122e+09
4.537387e+00 2.467335e+09
4.595219e+00 2.423632e+09
4.653789e+00 2.381142e+09
4.713105e+00 2.338224e+09
4.773178e+00 2.296643e+09
4.834016e+00 2.255822e+09
4.895629e+00 2.215424e+09
4.958028e+00 2.175350e+09
5.021222e+00 2.136497e+09
5.085222e+00 2.098325e+09
5.150037e+00 2.060674e+09
5.215678e+00 2.023487e+09
5.282156e+00 1.986281e+09
5.349482e+00 1.950418e+09
5.417665e+00 1.915033e+09
5.486718e+00 1.880054e+09
5.556650e+00 1.845425e+09
5.627475e+00 1.811429e+09
5.699201e+00 1.778243e+09
5.771842e+00 1.745780e+09
5.845409e+00 1.713961e+09
5.919913e+00 1.682343e+09
5.995368e+00 1.651427e+09
6.071783e+00 1.620783e+09
6.149173e+00 1.590555e+09
6.227549e+00 1.561227e+09
6.306925e+00 1.532346e+09
6.387311e+00 1.503781e+09
6.468723e+00 1.475555e+09
6.551172e+00 1.447943e+09
6.634672e+00 1.420727e+09
6.719236e+00 1.394312e+09
6.804878e+00 1.367832e+09
6.891612e+00 1.342130e+09
6.979451e+00 1.316808e+09
7.068410e+00 1.292146e+09
7.158503e+00 1.267842e+09
7.249744e+00 1.243732e+09
7.342148e+00 1.219984e+09
7.435729e+00 1.196566e+09
7.530504e+00 1.173770e+09
7.626486e+00 1.151108e+09
7.723692e+00 1.128743e+09
7.822136e+00 1.106839e+09
7.921836e+00 1.085297e+09
8.022806e+00 1.064473e+09
8.125063e+00 1.043665e+09
8.228624e+00 1.023471e+09
8.333504e+00 1.003476e+09
8.439722e+00 9.837991e+08
8.547293e+00 9.645238e+08
8.656235e+00 9.452423e+08
8.766566e+00 9.263712e+08
8.878303e+00 9.080696e+08
8.991464e+00 8.898401e+08
9.106067e+00 8.720677e+08
9.222132e+00 8.545908e+08
9.339675e+00 8.375080e+08
9.458717e+00 8.208406e+08
9.579276e+00 8.045390e+08
9.701372e+00 7.883938e+08
9.825023e+00 7.723452e+08
9.950251e+00 7.566209e+08
1.007708e+01 7.413277e+08
1.020552e+01 7.264228e+08
1.033559e+01 7.113669e+08
1.046733e+01 6.966871e+08
1.060074e+01 6.821631e+08
1.073586e+01 6.680510e+08
1.087270e+01 6.542489e+08
1.101128e+01 6.406828e+08
1.115162e+01 6.273360e+08
1.129376e+01 6.141146e+08
1.143771e+01 6.012250e+08
1.158349e+01 5.886155e+08
1.173113e+01 5.760893e+08
1.188066e+01 5.639027e+08
1.203208e+01 5.517509e+08
1.218544e+01 5.399190e+08
1.234076e+01 5.282666e+08
1.249805e+01 5.169284e+08
1.265735e+01 5.057081e+08
1.281868e+01 4.947552e+08
1.298206e+01 4.839500e+08
1.314753e+01 4.733580e+08
1.331510e+01 4.629124e+08
1.348482e+01 4.526513e+08
1.365669e+01 4.425362e+08
1.383076e+01 4.327897e+08
1.400704e+01 4.230838e+08
1.418557e+01 4.135432e+08
1.436638e+01 4.042262e+08
1.454949e+01 3.951384e+08
1.473493e+01 3.861720e+08
1.492274e+01 3.773799e+08
1.511294e+01 3.687362e+08
1.530557e+01 3.602746e+08
1.550065e+01 3.519689e+08
1.569822e+01 3.438661e+08
1.589831e+01 3.358156e+08
1.610095e+01 3.279384e+08
1.630616e+01 3.202892e+08
1.651400e+01 3.126798e+08
1.672448e+01 3.052752e+08
1.693765e+01 2.980136e+08
1.715354e+01 2.909344e+08
1.737217e+01 2.839076e+08
1.759359e+01 2.770570e+08
1.781784e+01 2.703191e+08
1.804494e+01 2.636998e+08
1.827494e+01 2.572659e+08
1.850787e+01 2.509405e+08
1.874377e+01 2.447204e+08
1.898267e+01 2.386659e+08
1.922462e+01 2.326779e+08
1.946965e+01 2.268511e+08
1.971781e+01 2.211245e+08
1.996913e+01 2.154879e+08
2.022365e+01 2.100313e+08
2.048142e+01 2.046457e+08
2.074247e+01 1.993656e+08
2.100685e+01 1.941816e+08
2.127460e+01 1.891389e+08
2.154576e+01 1.841539e+08
2.182038e+01 1.792491e+08
2.209850e+01 1.745189e+08
2.238016e+01 1.699200e+08
2.266542e+01 1.653651e+08
2.295430e+01 1.608919e+08
2.324688e+01 1.565560e+08
2.354318e+01 1.522913e+08
2.384325e+01 1.481247e+08
2.414715e+01 1.440745e+08
2.445493e+01 1.400990e+08
2.476663e+01 1.362210e+08
2.508230e+01 1.324162e+08
2.540199e+01 1.287290e+08
2.572576e+01 1.250939e+08
2.605366e+01 1.215386e+08
2.638573e+01 1.180601e+08
2.672204e+01 1.146518e+08
2.706263e+01 1.113272e+08
2.740757e+01 1.080959e+08
2.775690e+01 1.049318e+08
2.811069e+01 1.018610e+08
2.846898e+01 9.885478e+07
2.883184e+01 9.588319e+07
2.919932e+01 9.300857e+07
2.957149e+01 9.020549e+07
2.994841e+01 8.746490e+07
3.033012e+01 8.478791e+07
3.071671e+01 8.217303e+07
3.110821e+01 7.960052e+07
3.150471e+01 7.714377e+07
3.190627e+01 7.473140e+07
3.231294e+01 7.238071e+07
3.272479e+01 7.009292e+07
3.314190e+01 6.784864e+07
3.356432e+01 6.563967e+07
3.399212e+01 6.352899e+07
3.442538e+01 6.146094e+07
3.486416e+01 5.945355e+07
3.530853e+01 5.749860e+07
3.575857e+01 5.558454e+07
3.621434e+01 5.371779e+07
3.667592e+01 5.189744e+07
3.714338e+01 5.015278e+07
3.761681e+01 4.844590e+07
3.809626e+01 4.679192e+07
3.858183e+01 4.516985e+07
3.907359e+01 4.359309e+07
3.957161e+01 4.206385e+07
4.007598e+01 4.057553e+07
4.058679e+01 3.913929e+07
4.110410e+01 3.774053e+07
4.162800e+01 3.638003e+07
4.215858e+01 3.506787e+07
4.269593e+01 3.379081e+07
4.324012e+01 3.254991e+07
4.379126e+01 3.134209e+07
4.434941e+01 3.017763e+07
4.491468e+01 2.902820e+07
4.548715e+01 2.792553e+07
4.606692e+01 2.686934e+07
4.665408e+01 2.583228e+07
4.724873e+01 2.482550e+07
4.785095e+01 2.385096e+07
4.846085e+01 2.291363e+07
4.907852e+01 2.200083e+07
4.970407e+01 2.113446e+07
5.033759e+01 2.027463e+07
5.097918e+01 1.945519e+07
5.162895e+01 1.866144e+07
5.228701e+01 1.789149e+07
5.295345e+01 1.715423e+07
5.362838e+01 1.644005e+07
5.431192e+01 1.574216e+07
5.500417e+01 1.506697e+07
5.570524e+01 1.442361e+07
5.641525e+01 1.379637e+07
5.713431e+01 1.319385e+07
5.786253e+01 1.262601e+07
5.860004e+01 1.207059e+07
5.934694e+01 1.154065e+07
6.010337e+01 1.102615e+07
6.086943e+01 1.053318e+07
6.164526e+01 1.006017e+07
6.243098e+01 9.609908e+06
6.322671e+01 9.178897e+06
6.403259e+01 8.768168e+06
6.484874e+01 8.373539e+06
6.567529e+01 7.999502e+06
6.651237e+01 7.642844e+06
6.736013e+01 7.300582e+06
6.821869e+01 6.974733e+06
6.908819e+01 6.662734e+06
6.996877e+01 6.362793e+06
7.086058e+01 6.078019e+06
7.176376e+01 5.805119e+06
7.267845e+01 5.543895e+06
7.360479e+01 5.294241e+06
7.454294e+01 5.057385e+06
7.549305e+01 4.830357e+06
7.645527e+01 4.615507e+06
7.742976e+01 4.408066e+06
7.841666e+01 4.209276e+06
7.941615e+01 4.019009e+06
8.042837e+01 3.838333e+06
8.145350e+01 3.666105e+06
8.249169e+01 3.501603e+06
8.354311e+01 3.343886e+06
8.460794e+01 3.193105e+06
8.568633e+01 3.049474e+06
8.677847e+01 2.912019e+06
8.788454e+01 2.781023e+06
8.900470e+01 2.655855e+06
9.013913e+01 2.536541e+06
9.128803e+01 2.422339e+06
9.245157e+01 2.313437e+06
9.362994e+01 2.209832e+06
9.482333e+01 2.111330e+06
9.603193e+01 2.016699e+06
9.725594e+01 1.926194e+06
9.849554e+01 1.839829e+06
9.975095e+01 1.756456e+06
1.010224e+02 1.677720e+06
1.023100e+02 1.602494e+06
1.036140e+02 1.530308e+06
1.049346e+02 1.462221e+06
1.062721e+02 1.396840e+06
1.076266e+02 1.334058e+06
1.089984e+02 1.274157e+06
1.103877e+02 1.216743e+06
1.117947e+02 1.161948e+06
1.132196e+02 1.110022e+06
1.146627e+02 1.060041e+06
1.161241e+02 1.012375e+06
1.176042e+02 9.668039e+05
1.191032e+02 9.236381e+05
1.206213e+02 8.819766e+05
1.221587e+02 8.417219e+05
1.237157e+02 8.035246e+05
1.252925e+02 7.675482e+05
1.268895e+02 7.332045e+05
1.285068e+02 7.004153e+05
1.301447e+02 6.688365e+05
1.318035e+02 6.387527e+05
1.334835e+02 6.101536e+05
1.351848e+02 5.825417e+05
1.369079e+02 5.562882e+05
1.386529e+02 5.313879e+05
1.404201e+02 5.075298e+05
1.422099e+02 4.847118e+05
1.440225e+02 4.630434e+05
1.458582e+02 4.421022e+05
1.477172e+02 4.224032e+05
1.496000e+02 4.033237e+05
1.515068e+02 3.852826e+05
1.534379e+02 3.679397e+05
1.553935e+02 3.513617e+05
1.573742e+02 3.353865e+05
1.593800e+02 3.201903e+05
1.614115e+02 3.057683e+05
1.634688e+02 2.920781e+05
1.655523e+02 2.790443e+05
1.676624e+02 2.665598e+05
1.697994e+02 2.547341e+05
1.719636e+02 2.433227e+05
1.741555e+02 2.323515e+05
1.763752e+02 2.218736e+05
1.786233e+02 2.120367e+05
1.809000e+02 2.025782e+05
1.832057e+02 1.935826e+05
1.855408e+02 1.849151e+05
1.879056e+02 1.766070e+05
1.903007e+02 1.686111e+05
1.927262e+02 1.610177e+05
1.951826e+02 1.537677e+05
1.976704e+02 1.468475e+05
2.001899e+02 1.402148e+05
2.027415e+02 1.339055e+05
2.053256e+02 1.279043e+05
2.079426e+02 1.221818e+05
2.105930e+02 1.166246e+05
2.132772e+02 1.113913e+05
2.159956e+02 1.063721e+05
2.187486e+02 1.016176e+05
2.215367e+02 9.706955e+04
2.243604e+02 9.275170e+04
2.272201e+02 8.858629e+04
2.301162e+02 8.465187e+04
2.330492e+02 8.081067e+04
2.360196e+02 7.722640e+04
2.390278e+02 7.378871e+04
2.420744e+02 7.050285e+04
2.451599e+02 6.734704e+04
2.482846e+02 6.433321e+04
2.514492e+02 6.144589e+04
2.546542e+02 5.869811e+04
2.578999e+02 5.610642e+04
2.611871e+02 5.356903e+04
2.645161e+02 5.115808e+04
2.678876e+02 4.887430e+04
2.713020e+02 4.667540e+04
2.747600e+02 4.456460e+04
2.782620e+02 4.254622e+04
2.818087e+02 4.062023e+04
2.854006e+02 3.879028e+04
2.890383e+02 3.705116e+04
2.927223e+02 3.539291e+04
2.964533e+02 3.381298e+04
3.002318e+02 3.229172e+04
3.040585e+02 3.085155e+04
3.079340e+02 2.946996e+04
3.118588e+02 2.815314e+04
3.158337e+02 2.688726e+04
3.198593e+02 2.568268e+04
3.239362e+02 2.453019e+04
3.280650e+02 2.343491e+04
3.322464e+02 2.238174e+04
3.364812e+02 2.137831e+04
3.407699e+02 2.042363e+04
3.451133e+02 1.950266e+04
3.495121e+02 1.861644e+04
3.539669e+02 1.777565e+04
3.584785e+02 1.697590e+04
3.630476e+02 1.621400e+04
3.676749e+02 1.548005e+04
3.723612e+02 1.477968e+04
3.771073e+02 1.411676e+04
3.819138e+02 1.348358e+04
3.867816e+02 1.287879e+04
3.917114e+02 1.229699e+04
3.967041e+02 1.174056e+04
4.017604e+02 1.121199e+04
4.068812e+02 1.070616e+04
4.120672e+02 1.022274e+04
4.173194e+02 9.764042e+03
4.226384e+02 9.325306e+03
4.280253e+02 8.909310e+03
4.334808e+02 8.509571e+03
4.390059e+02 8.125165e+03
4.446014e+02 7.759699e+03
4.502682e+02 7.412173e+03
4.560072e+02 7.079097e+03
4.618194e+02 6.762903e+03
4.677057e+02 6.459715e+03
4.736670e+02 6.171443e+03
4.797042e+02 5.895983e+03
4.858185e+02 5.632008e+03
4.920106e+02 5.379460e+03
4.982817e+02 5.136991e+03
5.046327e+02 4.905450e+03
5.110646e+02 4.684333e+03
5.175786e+02 4.472581e+03
5.241755e+02 4.271229e+03
5.308566e+02 4.078971e+03
5.376228e+02 3.896762e+03
5.444752e+02 3.722739e+03
5.514150e+02 3.554270e+03
5.584432e+02 3.395778e+03
5.655610e+02 3.243767e+03
5.727696e+02 3.098651e+03
5.800700e+02 2.961146e+03
5.874635e+02 2.828348e+03
5.949511e+02 2.700976e+03
6.025343e+02 2.580209e+03
6.102141e+02 2.465720e+03
6.179917e+02 2.355321e+03
6.258686e+02 2.248939e+03
6.338458e+02 2.148293e+03
6.419246e+02 2.051257e+03
6.501065e+02 1.958505e+03
6.583926e+02 1.869946e+03
6.667844e+02 1.785392e+03
6.752831e+02 1.704661e+03
6.838901e+02 1.627581e+03
6.926068e+02 1.553986e+03
7.014347e+02 1.483956e+03
7.103750e+02 1.417088e+03
7.194293e+02 1.353328e+03
7.285991e+02 1.292493e+03
7.378856e+02 1.234404e+03
7.472906e+02 1.178674e+03
7.568154e+02 1.125730e+03
7.664616e+02 1.075107e+03
7.762308e+02 1.026831e+03
7.861245e+02 9.804182e+02
7.961443e+02 9.362330e+02
8.062918e+02 8.939787e+02
8.165687e+02 8.536963e+02
8.269765e+02 8.152850e+02
8.375170e+02 7.786798e+02
8.481918e+02 7.437274e+02
8.590027e+02 7.103431e+02
8.699514e+02 6.784723e+02
8.810396e+02 6.480315e+02
8.922692e+02 6.189565e+02
9.036419e+02 5.910623e+02
9.151595e+02 5.646062e+02
9.268240e+02 5.393340e+02
9.386371e+02 5.152942e+02
9.506008e+02 4.922200e+02
9.627170e+02 4.701746e+02
9.749876e+02 4.489948e+02
9.874146e+02 4.287813e+02
1.000000e+03 4.095255e+02
