# Energy(MeV) Fluence_Planar_Median(cm^-2*MeV^-1)
1.000000e+00 6.188363e+08
1.011599e+00 6.056948e+08
1.023332e+00 5.928312e+08
1.035202e+00 5.802395e+08
1.047209e+00 5.679141e+08
1.059356e+00 5.558492e+08
1.071643e+00 5.440394e+08
1.084073e+00 5.324793e+08
1.096647e+00 5.211637e+08
1.109367e+00 5.100874e+08
1.122234e+00 4.992453e+08
1.135251e+00 4.886325e+08
1.148418e+00 4.782442e+08
1.161739e+00 4.680756e+08
1.175214e+00 4.581221e+08
1.188845e+00 4.483792e+08
1.202634e+00 4.388423e+08
1.216583e+00 4.295073e+08
1.230694e+00 4.203697e+08
1.244969e+00 4.114254e+08
1.259409e+00 4.026704e+08
1.274017e+00 3.941007e+08
1.288794e+00 3.857123e+08
1.303743e+00 3.775015e+08
1.318865e+00 3.694644e+08
1.334162e+00 3.615974e+08
1.349637e+00 3.538970e+08
1.365291e+00 3.463595e+08
1.381127e+00 3.389508e+08
1.397147e+00 3.316668e+08
1.413352e+00 3.245384e+08
1.429746e+00 3.175623e+08
1.446329e+00 3.107352e+08
1.463105e+00 3.040539e+08
1.480075e+00 2.975154e+08
1.497243e+00 2.911482e+08
1.514609e+00 2.849387e+08
1.532177e+00 2.788607e+08
1.549948e+00 2.729115e+08
1.567926e+00 2.670883e+08
1.586112e+00 2.613885e+08
1.604509e+00 2.558095e+08
1.623120e+00 2.503487e+08
1.641946e+00 2.450037e+08
1.660991e+00 2.397719e+08
1.680257e+00 2.346511e+08
1.699746e+00 2.296388e+08
1.719461e+00 2.247328e+08
1.739405e+00 2.199307e+08
1.759580e+00 2.152306e+08
1.779989e+00 2.106300e+08
1.800635e+00 2.061271e+08
1.821520e+00 2.017196e+08
1.842648e+00 1.974057e+08
1.864021e+00 1.931832e+08
1.885641e+00 1.890503e+08
1.907513e+00 1.850051e+08
1.929638e+00 1.810457e+08
1.952019e+00 1.771704e+08
1.974661e+00 1.733773e+08
1.997565e+00 1.696647e+08
2.020734e+00 1.660309e+08
2.044172e+00 1.624742e+08
2.067883e+00 1.589931e+08
2.091868e+00 1.555858e+08
2.116131e+00 1.522509e+08
2.140676e+00 1.489868e+08
2.165505e+00 1.457921e+08
2.190623e+00 1.426652e+08
2.216032e+00 1.396047e+08
2.241735e+00 1.366092e+08
2.267737e+00 1.336774e+08
2.294040e+00 1.308079e+08
2.320648e+00 1.279993e+08
2.347565e+00 1.252505e+08
2.374795e+00 1.225649e+08
2.402340e+00 1.199416e+08
2.430204e+00 1.173743e+08
2.458392e+00 1.148621e+08
2.486906e+00 1.124036e+08
2.515752e+00 1.099977e+08
2.544932e+00 1.076433e+08
2.574450e+00 1.053393e+08
2.604311e+00 1.030846e+08
2.634518e+00 1.008782e+08
2.665075e+00 9.871901e+07
2.695987e+00 9.660604e+07
2.727258e+00 9.453742e+07
2.758891e+00 9.249661e+07
2.790891e+00 9.049960e+07
2.823262e+00 8.854545e+07
2.856009e+00 8.663323e+07
2.889136e+00 8.476206e+07
2.922647e+00 8.293106e+07
2.956546e+00 8.113936e+07
2.990839e+00 7.939788e+07
3.025529e+00 7.769390e+07
3.060622e+00 7.602650e+07
3.096122e+00 7.439487e+07
3.132033e+00 7.279827e+07
3.168361e+00 7.123593e+07
3.205111e+00 6.970712e+07
3.242287e+00 6.821112e+07
3.279894e+00 6.674722e+07
3.317937e+00 6.531475e+07
3.356421e+00 6.391301e+07
3.395352e+00 6.254136e+07
3.434734e+00 6.119915e+07
3.474573e+00 5.988574e+07
3.514875e+00 5.859100e+07
3.555643e+00 5.732330e+07
3.596885e+00 5.608303e+07
3.638605e+00 5.486960e+07
3.680809e+00 5.368243e+07
3.723502e+00 5.251940e+07
3.766690e+00 5.137774e+07
3.810380e+00 5.026767e+07
3.854576e+00 4.918140e+07
3.899285e+00 4.811840e+07
3.944512e+00 4.707824e+07
3.990264e+00 4.606054e+07
4.036547e+00 4.506485e+07
4.083367e+00 4.409069e+07
4.130729e+00 4.313758e+07
4.178641e+00 4.220507e+07
4.227109e+00 4.129273e+07
4.276138e+00 4.040226e+07
4.325737e+00 3.952987e+07
4.375911e+00 3.867632e+07
4.426666e+00 3.784121e+07
4.478011e+00 3.702413e+07
4.529951e+00 3.622143e+07
4.582493e+00 3.543531e+07
4.635645e+00 3.466932e+07
4.689414e+00 3.392055e+07
4.743806e+00 3.318928e+07
4.798828e+00 3.247112e+07
4.854490e+00 3.176849e+07
4.910796e+00 3.108108e+07
4.967756e+00 3.040853e+07
5.025377e+00 2.975055e+07
5.083665e+00 2.910680e+07
5.142630e+00 2.847698e+07
5.202279e+00 2.786080e+07
5.262620e+00 2.726329e+07
5.323660e+00 2.667046e+07
5.385409e+00 2.610591e+07
5.447874e+00 2.554420e+07
5.511063e+00 2.498716e+07
5.574985e+00 2.444529e+07
5.639649e+00 2.391824e+07
5.705063e+00 2.340240e+07
5.771235e+00 2.289768e+07
5.838175e+00 2.240385e+07
5.905892e+00 2.192066e+07
5.974393e+00 2.145014e+07
6.043690e+00 2.099519e+07
6.113790e+00 2.055077e+07
6.184703e+00 2.011155e+07
6.256439e+00 1.967851e+07
6.329007e+00 1.925858e+07
6.402416e+00 1.885028e+07
6.476677e+00 1.844523e+07
6.551800e+00 1.804450e+07
6.627793e+00 1.765258e+07
6.704668e+00 1.727255e+07
6.782435e+00 1.690070e+07
6.861104e+00 1.653685e+07
6.940685e+00 1.618034e+07
7.021189e+00 1.583098e+07
7.102627e+00 1.548613e+07
7.185010e+00 1.514775e+07
7.268348e+00 1.482209e+07
7.352653e+00 1.450299e+07
7.437936e+00 1.418467e+07
7.524208e+00 1.387469e+07
7.611480e+00 1.357563e+07
7.699765e+00 1.328157e+07
7.789074e+00 1.299192e+07
7.879418e+00 1.270858e+07
7.970811e+00 1.242942e+07
8.063263e+00 1.216032e+07
8.156788e+00 1.189512e+07
8.251398e+00 1.163960e+07
8.347105e+00 1.138808e+07
8.443923e+00 1.114368e+07
8.541863e+00 1.090579e+07
8.640939e+00 1.067316e+07
8.741164e+00 1.044549e+07
8.842552e+00 1.021851e+07
8.945116e+00 9.996239e+06
9.048869e+00 9.778800e+06
9.153826e+00 9.568910e+06
9.260001e+00 9.365871e+06
9.367406e+00 9.166523e+06
9.476058e+00 8.968329e+06
9.585970e+00 8.775218e+06
9.697157e+00 8.584837e+06
9.809633e+00 8.399802e+06
9.923414e+00 8.218805e+06
1.003851e+01 8.041694e+06
1.015495e+01 7.868400e+06
1.027274e+01 7.700839e+06
1.039189e+01 7.534229e+06
1.051242e+01 7.370711e+06
1.063436e+01 7.213076e+06
1.075770e+01 7.058811e+06
1.088248e+01 6.908469e+06
1.100870e+01 6.763367e+06
1.113639e+01 6.620515e+06
1.126556e+01 6.481226e+06
1.139623e+01 6.344868e+06
1.152842e+01 6.206023e+06
1.166213e+01 6.072974e+06
1.179740e+01 5.942784e+06
1.193424e+01 5.816570e+06
1.207266e+01 5.689363e+06
1.221269e+01 5.564159e+06
1.235434e+01 5.444609e+06
1.249764e+01 5.328124e+06
1.264260e+01 5.213280e+06
1.278924e+01 5.101229e+06
1.293758e+01 4.992559e+06
1.308764e+01 4.885728e+06
1.323945e+01 4.780750e+06
1.339301e+01 4.677018e+06
1.354835e+01 4.574034e+06
1.370550e+01 4.474199e+06
1.386447e+01 4.377417e+06
1.402528e+01 4.281850e+06
1.418796e+01 4.189027e+06
1.435252e+01 4.098702e+06
1.451900e+01 4.011754e+06
1.468740e+01 3.926651e+06
1.485776e+01 3.843278e+06
1.503009e+01 3.760394e+06
1.520442e+01 3.679570e+06
1.538078e+01 3.599549e+06
1.555918e+01 3.521253e+06
1.573965e+01 3.444225e+06
1.592221e+01 3.367869e+06
1.610689e+01 3.292420e+06
1.629371e+01 3.220066e+06
1.648270e+01 3.149304e+06
1.667388e+01 3.079464e+06
1.686728e+01 3.011774e+06
1.706292e+01 2.945574e+06
1.726083e+01 2.882411e+06
1.746104e+01 2.820069e+06
1.766357e+01 2.759010e+06
1.786845e+01 2.699263e+06
1.807570e+01 2.641137e+06
1.828536e+01 2.584263e+06
1.849745e+01 2.528614e+06
1.871200e+01 2.474163e+06
1.892904e+01 2.420940e+06
1.914859e+01 2.368979e+06
1.937070e+01 2.317790e+06
1.959538e+01 2.267295e+06
1.982266e+01 2.217900e+06
2.005258e+01 2.169521e+06
2.028517e+01 2.122479e+06
2.052045e+01 2.077387e+06
2.075847e+01 2.032930e+06
2.099924e+01 1.989424e+06
2.124281e+01 1.946849e+06
2.148921e+01 1.905315e+06
2.173846e+01 1.864414e+06
2.199060e+01 1.824514e+06
2.224567e+01 1.784961e+06
2.250369e+01 1.745991e+06
2.276471e+01 1.709171e+06
2.302875e+01 1.673193e+06
2.329586e+01 1.637465e+06
2.356607e+01 1.601702e+06
2.383941e+01 1.566699e+06
2.411592e+01 1.533551e+06
2.439564e+01 1.500560e+06
2.467860e+01 1.467929e+06
2.496485e+01 1.436623e+06
2.525441e+01 1.405766e+06
2.554733e+01 1.375706e+06
2.584365e+01 1.346371e+06
2.614341e+01 1.317681e+06
2.644665e+01 1.288945e+06
2.675340e+01 1.261373e+06
2.706371e+01 1.234009e+06
2.737762e+01 1.207057e+06
2.769517e+01 1.180980e+06
2.801640e+01 1.155441e+06
2.834136e+01 1.130868e+06
2.867009e+01 1.106938e+06
2.900263e+01 1.083581e+06
2.933903e+01 1.060811e+06
2.967933e+01 1.038178e+06
3.002358e+01 1.015621e+06
3.037182e+01 9.934494e+05
3.072410e+01 9.719803e+05
3.108046e+01 9.512635e+05
3.144096e+01 9.309702e+05
3.180564e+01 9.108799e+05
3.217455e+01 8.912233e+05
3.254774e+01 8.719681e+05
3.292526e+01 8.534131e+05
3.330716e+01 8.351877e+05
3.369348e+01 8.170620e+05
3.408429e+01 7.996110e+05
3.447963e+01 7.825328e+05
3.487956e+01 7.656300e+05
3.528412e+01 7.489613e+05
3.569338e+01 7.326438e+05
3.610738e+01 7.165991e+05
3.652619e+01 7.012268e+05
3.694985e+01 6.862272e+05
3.737843e+01 6.715486e+05
3.781198e+01 6.569931e+05
3.825055e+01 6.427191e+05
3.869422e+01 6.287552e+05
3.914303e+01 6.150947e+05
3.959704e+01 6.017615e+05
4.005633e+01 5.888221e+05
4.052094e+01 5.761609e+05
4.099093e+01 5.638750e+05
4.146638e+01 5.519110e+05
4.194735e+01 5.400723e+05
4.243389e+01 5.284546e+05
4.292608e+01 5.169107e+05
4.342397e+01 5.055449e+05
4.392764e+01 4.944291e+05
4.443715e+01 4.835577e+05
4.495258e+01 4.729253e+05
4.547398e+01 4.626239e+05
4.600143e+01 4.525687e+05
4.653499e+01 4.426761e+05
4.707475e+01 4.329860e+05
4.762076e+01 4.235145e+05
4.817311e+01 4.144554e+05
4.873186e+01 4.055080e+05
4.929710e+01 3.967861e+05
4.986889e+01 3.882518e+05
5.044732e+01 3.799011e+05
5.103245e+01 3.717300e+05
5.162437e+01 3.637347e+05
5.222315e+01 3.558194e+05
5.282889e+01 3.480662e+05
5.344164e+01 3.404821e+05
5.406151e+01 3.330489e+05
5.468856e+01 3.257658e+05
5.532289e+01 3.186420e+05
5.596457e+01 3.116739e+05
5.661370e+01 3.048583e+05
5.727036e+01 2.981917e+05
5.793463e+01 2.916709e+05
5.860661e+01 2.852926e+05
5.928638e+01 2.790775e+05
5.997404e+01 2.730116e+05
6.066967e+01 2.670777e+05
6.137337e+01 2.612726e+05
6.208523e+01 2.556014e+05
6.280535e+01 2.501193e+05
6.353383e+01 2.447098e+05
6.427075e+01 2.394333e+05
6.501622e+01 2.342755e+05
6.577033e+01 2.292346e+05
6.653320e+01 2.243021e+05
6.730491e+01 2.194758e+05
6.808557e+01 2.147533e+05
6.887529e+01 2.101325e+05
6.967417e+01 2.056111e+05
7.048231e+01 2.012142e+05
7.129983e+01 1.969429e+05
7.212683e+01 1.927623e+05
7.296342e+01 1.886705e+05
7.380971e+01 1.846655e+05
7.466583e+01 1.807455e+05
7.553187e+01 1.769088e+05
7.640795e+01 1.731535e+05
7.729420e+01 1.694779e+05
7.819073e+01 1.658370e+05
7.909765e+01 1.622645e+05
8.001510e+01 1.587690e+05
8.094319e+01 1.553487e+05
8.188204e+01 1.520022e+05
8.283178e+01 1.487278e+05
8.379254e+01 1.455230e+05
8.476444e+01 1.424071e+05
8.574761e+01 1.393579e+05
8.674219e+01 1.363740e+05
8.774830e+01 1.334516e+05
8.876609e+01 1.305572e+05
8.979568e+01 1.277078e+05
9.083721e+01 1.249184e+05
9.189082e+01 1.221898e+05
9.295665e+01 1.195209e+05
9.403485e+01 1.169103e+05
9.512555e+01 1.143567e+05
9.622890e+01 1.118882e+05
9.734505e+01 1.095007e+05
9.847414e+01 1.071641e+05
9.961633e+01 1.048509e+05
1.007718e+02 1.025768e+05
1.019406e+02 1.003520e+05
1.031230e+02 9.817555e+04
1.043191e+02 9.604626e+04
1.055291e+02 9.396315e+04
1.067531e+02 9.192522e+04
1.079914e+02 8.992795e+04
1.092439e+02 8.797377e+04
1.105110e+02 8.606205e+04
1.117928e+02 8.419188e+04
1.130895e+02 8.236235e+04
1.144012e+02 8.057257e+04
1.157282e+02 7.882169e+04
1.170705e+02 7.710886e+04
1.184284e+02 7.543675e+04
1.198020e+02 7.380556e+04
1.211916e+02 7.220964e+04
1.225973e+02 7.064835e+04
1.240193e+02 6.912059e+04
1.254578e+02 6.762598e+04
1.269129e+02 6.616369e+04
1.283850e+02 6.473092e+04
1.298741e+02 6.332479e+04
1.313805e+02 6.194921e+04
1.329044e+02 6.060382e+04
1.344459e+02 5.928941e+04
1.360053e+02 5.800351e+04
1.375828e+02 5.674549e+04
1.391787e+02 5.551476e+04
1.407930e+02 5.431073e+04
1.424260e+02 5.313280e+04
1.440780e+02 5.198043e+04
1.457491e+02 5.085305e+04
1.474397e+02 4.975012e+04
1.491498e+02 4.867111e+04
1.508798e+02 4.761550e+04
1.526298e+02 4.657761e+04
1.544002e+02 4.556017e+04
1.561910e+02 4.456496e+04
1.580027e+02 4.359718e+04
1.598353e+02 4.265181e+04
1.616892e+02 4.173332e+04
1.635647e+02 4.083803e+04
1.654618e+02 3.996195e+04
1.673810e+02 3.910466e+04
1.693224e+02 3.826050e+04
1.712864e+02 3.743390e+04
1.732731e+02 3.662516e+04
1.752829e+02 3.583389e+04
1.773160e+02 3.505971e+04
1.793727e+02 3.430226e+04
1.814532e+02 3.356118e+04
1.835578e+02 3.283610e+04
1.856869e+02 3.212669e+04
1.878407e+02 3.143261e+04
1.900194e+02 3.075352e+04
1.922234e+02 3.008911e+04
1.944530e+02 2.943905e+04
1.967085e+02 2.880303e+04
1.989901e+02 2.818076e+04
2.012981e+02 2.757193e+04
2.036330e+02 2.697625e+04
2.059949e+02 2.639344e+04
2.083842e+02 2.582229e+04
2.108012e+02 2.526275e+04
2.132463e+02 2.471534e+04
2.157197e+02 2.417978e+04
2.182218e+02 2.365583e+04
2.207529e+02 2.314324e+04
2.233134e+02 2.264175e+04
2.259036e+02 2.215277e+04
2.285239e+02 2.167618e+04
2.311745e+02 2.120984e+04
2.338559e+02 2.075354e+04
2.365683e+02 2.030706e+04
2.393123e+02 1.987018e+04
2.420880e+02 1.944270e+04
2.448960e+02 1.902441e+04
2.477365e+02 1.861513e+04
2.506100e+02 1.821465e+04
2.535168e+02 1.782279e+04
2.564573e+02 1.743936e+04
2.594319e+02 1.706418e+04
2.624410e+02 1.669707e+04
2.654850e+02 1.633786e+04
2.685644e+02 1.598637e+04
2.716794e+02 1.564245e+04
2.748306e+02 1.530593e+04
2.780183e+02 1.497635e+04
2.812431e+02 1.465297e+04
2.845052e+02 1.433766e+04
2.878051e+02 1.402987e+04
2.911433e+02 1.372869e+04
2.945203e+02 1.343397e+04
2.979364e+02 1.314558e+04
3.013921e+02 1.286339e+04
3.048879e+02 1.258725e+04
3.084243e+02 1.231704e+04
3.120017e+02 1.205263e+04
3.156206e+02 1.179389e+04
3.192814e+02 1.154071e+04
3.229847e+02 1.129297e+04
3.267310e+02 1.105054e+04
3.305207e+02 1.081332e+04
3.343544e+02 1.058119e+04
3.382325e+02 1.035404e+04
3.421556e+02 1.013177e+04
3.461243e+02 9.914271e+03
3.501389e+02 9.701441e+03
3.542002e+02 9.493180e+03
3.583085e+02 9.289389e+03
3.624645e+02 9.089974e+03
3.666687e+02 8.894839e+03
3.709216e+02 8.703894e+03
3.752239e+02 8.516803e+03
3.795761e+02 8.332511e+03
3.839787e+02 8.152207e+03
3.884325e+02 7.975805e+03
3.929379e+02 7.803082e+03
3.974955e+02 7.633757e+03
4.021060e+02 7.468106e+03
4.067700e+02 7.307328e+03
4.114881e+02 7.150616e+03
4.162609e+02 6.997265e+03
4.210891e+02 6.847202e+03
4.259732e+02 6.700062e+03
4.309140e+02 6.555872e+03
4.359122e+02 6.414718e+03
4.409683e+02 6.276369e+03
4.460830e+02 6.141005e+03
4.512571e+02 6.007943e+03
4.564912e+02 5.877424e+03
4.617860e+02 5.749741e+03
4.671422e+02 5.624831e+03
4.725605e+02 5.502635e+03
4.780417e+02 5.383094e+03
4.835865e+02 5.266150e+03
4.891955e+02 5.151746e+03
4.948696e+02 5.039827e+03
5.006096e+02 4.930340e+03
5.064161e+02 4.823232e+03
5.122900e+02 4.718450e+03
5.182320e+02 4.615945e+03
5.242429e+02 4.515666e+03
5.303235e+02 4.417566e+03
5.364747e+02 4.321598e+03
5.426972e+02 4.227714e+03
5.489919e+02 4.135869e+03
5.553596e+02 4.046232e+03
5.618012e+02 3.959092e+03
5.683174e+02 3.873829e+03
5.749093e+02 3.790402e+03
5.815776e+02 3.708772e+03
5.883233e+02 3.628900e+03
5.951472e+02 3.550749e+03
6.020502e+02 3.474280e+03
6.090333e+02 3.399459e+03
6.160975e+02 3.326248e+03
6.232435e+02 3.254615e+03
6.304724e+02 3.184524e+03
6.377852e+02 3.115943e+03
6.451828e+02 3.049277e+03
6.526662e+02 2.984096e+03
6.602365e+02 2.920308e+03
6.678945e+02 2.857884e+03
6.756413e+02 2.796794e+03
6.834780e+02 2.737010e+03
6.914056e+02 2.678504e+03
6.994251e+02 2.621248e+03
7.075377e+02 2.565216e+03
7.157444e+02 2.510383e+03
7.240462e+02 2.456721e+03
7.324443e+02 2.404206e+03
7.409399e+02 2.352814e+03
7.495340e+02 2.302520e+03
7.582277e+02 2.253302e+03
7.670223e+02 2.205135e+03
7.759190e+02 2.157999e+03
7.849188e+02 2.111869e+03
7.940229e+02 2.066726e+03
8.032327e+02 2.022548e+03
8.125494e+02 1.979250e+03
8.219740e+02 1.936527e+03
8.315080e+02 1.894726e+03
8.411526e+02 1.853828e+03
8.509090e+02 1.813813e+03
8.607786e+02 1.774661e+03
8.707627e+02 1.736355e+03
8.808626e+02 1.698875e+03
8.910797e+02 1.662205e+03
9.014152e+02 1.626326e+03
9.118706e+02 1.591222e+03
9.224473e+02 1.556792e+03
9.331467e+02 1.523056e+03
9.439702e+02 1.490051e+03
9.549192e+02 1.457868e+03
9.659952e+02 1.426525e+03
9.771997e+02 1.395855e+03
9.885341e+02 1.365816e+03
1.000000e+03 1.336411e+03
