# Energy(MeV) Fluence_Planar(p/cm2 sr MeV * pi)
1.800000e+00 1.910783e+09
1.822942e+00 1.881220e+09
1.846177e+00 1.851948e+09
1.869708e+00 1.823405e+09
1.893539e+00 1.795341e+09
1.917674e+00 1.766805e+09
1.942116e+00 1.738541e+09
1.966870e+00 1.710792e+09
1.991940e+00 1.683298e+09
2.017328e+00 1.657181e+09
2.043041e+00 1.630722e+09
2.069081e+00 1.604645e+09
2.095453e+00 1.579270e+09
2.122162e+00 1.553987e+09
2.149210e+00 1.529224e+09
2.176604e+00 1.505081e+09
2.204346e+00 1.481757e+09
2.232442e+00 1.459070e+09
2.260897e+00 1.436554e+09
2.289714e+00 1.413380e+09
2.318898e+00 1.391599e+09
2.348454e+00 1.369938e+09
2.378387e+00 1.348550e+09
2.408702e+00 1.327246e+09
2.439402e+00 1.305946e+09
2.470495e+00 1.285064e+09
2.501983e+00 1.264677e+09
2.533873e+00 1.244988e+09
2.566169e+00 1.226041e+09
2.598877e+00 1.206377e+09
2.632002e+00 1.186743e+09
2.665549e+00 1.168158e+09
2.699523e+00 1.150159e+09
2.733931e+00 1.131968e+09
2.768777e+00 1.114199e+09
2.804067e+00 1.096695e+09
2.839808e+00 1.079415e+09
2.876003e+00 1.062547e+09
2.912660e+00 1.045665e+09
2.949784e+00 1.029004e+09
2.987382e+00 1.012642e+09
3.025458e+00 9.965248e+08
3.064020e+00 9.806797e+08
3.103074e+00 9.649283e+08
3.142625e+00 9.493871e+08
3.182680e+00 9.341240e+08
3.223246e+00 9.191890e+08
3.264329e+00 9.043463e+08
3.305936e+00 8.900180e+08
3.348072e+00 8.763669e+08
3.390746e+00 8.617754e+08
3.433964e+00 8.476237e+08
3.477733e+00 8.337914e+08
3.522059e+00 8.201619e+08
3.566951e+00 8.071483e+08
3.612415e+00 7.942579e+08
3.658458e+00 7.810944e+08
3.705088e+00 7.684121e+08
3.752312e+00 7.555329e+08
3.800138e+00 7.433224e+08
3.848574e+00 7.308754e+08
3.897627e+00 7.189866e+08
3.947306e+00 7.072610e+08
3.997617e+00 6.956978e+08
4.048570e+00 6.845167e+08
4.100173e+00 6.731245e+08
4.152433e+00 6.616412e+08
4.205359e+00 6.506050e+08
4.258959e+00 6.396963e+08
4.313243e+00 6.290449e+08
4.368219e+00 6.185596e+08
4.423896e+00 6.083492e+08
4.480282e+00 5.982827e+08
4.537387e+00 5.881612e+08
4.595219e+00 5.781779e+08
4.653789e+00 5.684752e+08
4.713105e+00 5.589421e+08
4.773178e+00 5.496109e+08
4.834016e+00 5.404432e+08
4.895629e+00 5.313263e+08
4.958028e+00 5.223322e+08
5.021222e+00 5.135041e+08
5.085222e+00 5.046520e+08
5.150037e+00 4.962233e+08
5.215678e+00 4.879041e+08
5.282156e+00 4.796085e+08
5.349482e+00 4.712079e+08
5.417665e+00 4.631523e+08
5.486718e+00 4.550560e+08
5.556650e+00 4.470321e+08
5.627475e+00 4.392039e+08
5.699201e+00 4.316738e+08
5.771842e+00 4.242115e+08
5.845409e+00 4.168024e+08
5.919913e+00 4.095659e+08
5.995368e+00 4.022967e+08
6.071783e+00 3.952341e+08
6.149173e+00 3.882402e+08
6.227549e+00 3.814837e+08
6.306925e+00 3.747446e+08
6.387311e+00 3.682789e+08
6.468723e+00 3.617787e+08
6.551172e+00 3.554975e+08
6.634672e+00 3.491723e+08
6.719236e+00 3.429899e+08
6.804878e+00 3.369297e+08
6.891612e+00 3.309034e+08
6.979451e+00 3.249192e+08
7.068410e+00 3.190294e+08
7.158503e+00 3.133052e+08
7.249744e+00 3.077418e+08
7.342148e+00 3.023357e+08
7.435729e+00 2.968243e+08
7.530504e+00 2.914757e+08
7.626486e+00 2.864098e+08
7.723692e+00 2.811790e+08
7.822136e+00 2.761034e+08
7.921836e+00 2.712009e+08
8.022806e+00 2.662655e+08
8.125063e+00 2.612494e+08
8.228624e+00 2.563976e+08
8.333504e+00 2.516773e+08
8.439722e+00 2.469378e+08
8.547293e+00 2.425135e+08
8.656235e+00 2.381140e+08
8.766566e+00 2.337466e+08
8.878303e+00 2.294490e+08
8.991464e+00 2.251588e+08
9.106067e+00 2.210023e+08
9.222132e+00 2.168659e+08
9.339675e+00 2.128193e+08
9.458717e+00 2.088000e+08
9.579276e+00 2.049106e+08
9.701372e+00 2.010732e+08
9.825023e+00 1.971854e+08
9.950251e+00 1.934075e+08
1.007708e+01 1.896035e+08
1.020552e+01 1.860733e+08
1.033559e+01 1.824788e+08
1.046733e+01 1.790130e+08
1.060074e+01 1.755598e+08
1.073586e+01 1.721700e+08
1.087270e+01 1.689028e+08
1.101128e+01 1.656831e+08
1.115162e+01 1.625620e+08
1.129376e+01 1.593842e+08
1.143771e+01 1.562276e+08
1.158349e+01 1.531205e+08
1.173113e+01 1.500997e+08
1.188066e+01 1.471194e+08
1.203208e+01 1.442277e+08
1.218544e+01 1.413401e+08
1.234076e+01 1.385303e+08
1.249805e+01 1.357689e+08
1.265735e+01 1.331182e+08
1.281868e+01 1.304121e+08
1.298206e+01 1.278034e+08
1.314753e+01 1.252570e+08
1.331510e+01 1.227173e+08
1.348482e+01 1.202365e+08
1.365669e+01 1.177779e+08
1.383076e+01 1.153788e+08
1.400704e+01 1.130231e+08
1.418557e+01 1.106919e+08
1.436638e+01 1.084185e+08
1.454949e+01 1.062004e+08
1.473493e+01 1.040051e+08
1.492274e+01 1.018259e+08
1.511294e+01 9.970207e+07
1.530557e+01 9.762181e+07
1.550065e+01 9.554393e+07
1.569822e+01 9.352997e+07
1.589831e+01 9.152445e+07
1.610095e+01 8.958251e+07
1.630616e+01 8.767481e+07
1.651400e+01 8.579501e+07
1.672448e+01 8.395865e+07
1.693765e+01 8.215501e+07
1.715354e+01 8.037157e+07
1.737217e+01 7.859703e+07
1.759359e+01 7.688764e+07
1.781784e+01 7.519874e+07
1.804494e+01 7.353445e+07
1.827494e+01 7.190599e+07
1.850787e+01 7.032314e+07
1.874377e+01 6.875796e+07
1.898267e+01 6.719490e+07
1.922462e+01 6.566669e+07
1.946965e+01 6.416573e+07
1.971781e+01 6.267672e+07
1.996913e+01 6.124139e+07
2.022365e+01 5.982869e+07
2.048142e+01 5.845199e+07
2.074247e+01 5.707585e+07
2.100685e+01 5.573386e+07
2.127460e+01 5.442725e+07
2.154576e+01 5.313166e+07
2.182038e+01 5.185854e+07
2.209850e+01 5.061464e+07
2.238016e+01 4.938897e+07
2.266542e+01 4.821990e+07
2.295430e+01 4.705315e+07
2.324688e+01 4.591342e+07
2.354318e+01 4.480196e+07
2.384325e+01 4.370958e+07
2.414715e+01 4.263853e+07
2.445493e+01 4.158235e+07
2.476663e+01 4.054299e+07
2.508230e+01 3.952586e+07
2.540199e+01 3.852136e+07
2.572576e+01 3.754095e+07
2.605366e+01 3.657489e+07
2.638573e+01 3.562351e+07
2.672204e+01 3.470935e+07
2.706263e+01 3.381660e+07
2.740757e+01 3.293498e+07
2.775690e+01 3.207646e+07
2.811069e+01 3.123618e+07
2.846898e+01 3.040977e+07
2.883184e+01 2.959827e+07
2.919932e+01 2.881707e+07
2.957149e+01 2.803921e+07
2.994841e+01 2.727642e+07
3.033012e+01 2.653150e+07
3.071671e+01 2.580339e+07
3.110821e+01 2.509174e+07
3.150471e+01 2.439592e+07
3.190627e+01 2.371062e+07
3.231294e+01 2.304755e+07
3.272479e+01 2.239579e+07
3.314190e+01 2.175948e+07
3.356432e+01 2.113298e+07
3.399212e+01 2.052819e+07
3.442538e+01 1.993611e+07
3.486416e+01 1.935616e+07
3.530853e+01 1.879477e+07
3.575857e+01 1.823891e+07
3.621434e+01 1.769708e+07
3.667592e+01 1.715326e+07
3.714338e+01 1.664889e+07
3.761681e+01 1.614281e+07
3.809626e+01 1.565214e+07
3.858183e+01 1.517738e+07
3.907359e+01 1.471086e+07
3.957161e+01 1.425683e+07
4.007598e+01 1.380728e+07
4.058679e+01 1.336237e+07
4.110410e+01 1.293854e+07
4.162800e+01 1.252907e+07
4.215858e+01 1.213118e+07
4.269593e+01 1.174049e+07
4.324012e+01 1.136399e+07
4.379126e+01 1.099112e+07
4.434941e+01 1.063725e+07
4.491468e+01 1.028491e+07
4.548715e+01 9.942765e+06
4.606692e+01 9.610325e+06
4.665408e+01 9.287964e+06
4.724873e+01 8.968800e+06
4.785095e+01 8.663758e+06
4.846085e+01 8.365617e+06
4.907852e+01 8.074741e+06
4.970407e+01 7.792052e+06
5.033759e+01 7.516195e+06
5.097918e+01 7.249815e+06
5.162895e+01 6.991539e+06
5.228701e+01 6.738757e+06
5.295345e+01 6.496817e+06
5.362838e+01 6.264126e+06
5.431192e+01 6.037755e+06
5.500417e+01 5.813638e+06
5.570524e+01 5.598431e+06
5.641525e+01 5.387689e+06
5.713431e+01 5.186035e+06
5.786253e+01 4.988693e+06
5.860004e+01 4.795658e+06
5.934694e+01 4.610297e+06
6.010337e+01 4.430551e+06
6.086943e+01 4.256218e+06
6.164526e+01 4.090754e+06
6.243098e+01 3.926004e+06
6.322671e+01 3.769115e+06
6.403259e+01 3.619679e+06
6.484874e+01 3.470606e+06
6.567529e+01 3.329636e+06
6.651237e+01 3.191572e+06
6.736013e+01 3.057829e+06
6.821869e+01 2.930076e+06
6.908819e+01 2.805838e+06
6.996877e+01 2.684240e+06
7.086058e+01 2.568193e+06
7.176376e+01 2.459142e+06
7.267845e+01 2.350661e+06
7.360479e+01 2.247426e+06
7.454294e+01 2.147536e+06
7.549305e+01 2.050670e+06
7.645527e+01 1.958872e+06
7.742976e+01 1.870768e+06
7.841666e+01 1.783262e+06
7.941615e+01 1.701262e+06
8.042837e+01 1.621628e+06
8.145350e+01 1.545326e+06
8.249169e+01 1.473543e+06
8.354311e+01 1.404212e+06
8.460794e+01 1.337097e+06
8.568633e+01 1.271888e+06
8.677847e+01 1.209414e+06
8.788454e+01 1.148596e+06
8.900470e+01 1.090854e+06
9.013913e+01 1.036701e+06
9.128803e+01 9.856030e+05
9.245157e+01 9.350252e+05
9.362994e+01 8.871219e+05
9.482333e+01 8.408468e+05
9.603193e+01 7.971147e+05
9.725594e+01 7.550517e+05
9.849554e+01 7.145499e+05
9.975095e+01 6.764712e+05
1.010224e+02 6.398016e+05
1.023100e+02 6.040808e+05
1.036140e+02 5.706254e+05
1.049346e+02 5.390331e+05
1.062721e+02 5.088815e+05
1.076266e+02 4.804699e+05
1.089984e+02 4.525996e+05
1.103877e+02 4.255470e+05
1.117947e+02 4.013093e+05
1.132196e+02 3.770297e+05
1.146627e+02 3.543506e+05
1.161241e+02 3.327807e+05
1.176042e+02 3.124552e+05
1.191032e+02 2.931321e+05
1.206213e+02 2.744602e+05
1.221587e+02 2.569237e+05
1.237157e+02 2.409184e+05
1.252925e+02 2.256642e+05
1.268895e+02 2.112130e+05
1.285068e+02 1.973178e+05
1.301447e+02 1.844093e+05
1.318035e+02 1.719802e+05
1.334835e+02 1.605683e+05
1.351848e+02 1.497248e+05
1.369079e+02 1.393234e+05
1.386529e+02 1.295885e+05
1.404201e+02 1.206218e+05
1.422099e+02 1.120390e+05
1.440225e+02 1.040158e+05
1.458582e+02 9.653615e+04
1.477172e+02 8.959822e+04
1.496000e+02 8.308371e+04
1.515068e+02 7.683796e+04
1.534379e+02 7.112219e+04
1.553935e+02 6.574379e+04
1.573742e+02 6.067510e+04
1.593800e+02 5.601825e+04
1.614115e+02 5.167637e+04
1.634688e+02 4.762899e+04
1.655523e+02 4.380122e+04
1.676624e+02 4.026779e+04
1.697994e+02 3.699094e+04
1.719636e+02 3.392844e+04
1.741555e+02 3.110200e+04
1.763752e+02 2.847970e+04
1.786233e+02 2.606077e+04
1.809000e+02 2.383574e+04
1.832057e+02 2.175949e+04
1.855408e+02 1.985861e+04
1.879056e+02 1.811612e+04
1.903007e+02 1.652716e+04
1.927262e+02 1.505117e+04
1.951826e+02 1.369534e+04
1.976704e+02 1.245279e+04
2.001899e+02 1.131427e+04
2.027415e+02 1.025412e+04
2.053256e+02 9.289150e+03
2.079426e+02 8.394959e+03
2.105930e+02 7.594215e+03
2.132772e+02 6.853176e+03
2.159956e+02 6.181291e+03
2.187486e+02 5.564118e+03
2.215367e+02 5.001998e+03
2.243604e+02 4.495811e+03
2.272201e+02 4.038670e+03
2.301162e+02 3.623840e+03
2.330492e+02 3.238305e+03
2.360196e+02 2.889327e+03
2.390278e+02 2.580064e+03
2.420744e+02 2.301369e+03
2.451599e+02 2.048473e+03
2.482846e+02 1.820513e+03
2.514492e+02 1.615562e+03
2.546542e+02 1.434215e+03
2.578999e+02 1.271558e+03
2.611871e+02 1.125054e+03
2.645161e+02 9.938302e+02
2.678876e+02 8.772075e+02
2.713020e+02 7.725817e+02
2.747600e+02 6.798198e+02
2.782620e+02 5.974305e+02
2.818087e+02 5.242632e+02
2.854006e+02 4.593795e+02
2.890383e+02 4.018602e+02
2.927223e+02 3.507884e+02
2.964533e+02 3.054464e+02
3.002318e+02 2.655437e+02
3.040585e+02 2.305752e+02
3.079340e+02 2.002681e+02
3.118588e+02 1.735019e+02
3.158337e+02 1.498446e+02
3.198593e+02 1.294022e+02
3.239362e+02 1.116064e+02
3.280650e+02 9.625288e+01
3.322464e+02 8.276518e+01
3.364812e+02 7.104456e+01
3.407699e+02 6.087705e+01
3.451133e+02 5.207226e+01
3.495121e+02 4.446103e+01
3.539669e+02 3.789333e+01
3.584785e+02 3.222063e+01
3.630476e+02 2.731431e+01
3.676749e+02 2.310523e+01
3.723612e+02 1.950678e+01
3.771073e+02 1.643636e+01
3.819138e+02 1.382163e+01
3.867816e+02 1.159941e+01
3.917114e+02 9.714574e+00
3.967041e+02 8.119175e+00
4.017604e+02 6.775384e+00
4.068812e+02 5.645410e+00
4.120672e+02 4.687224e+00
4.173194e+02 3.883171e+00
4.226384e+02 3.209933e+00
4.280253e+02 2.650748e+00
4.334808e+02 2.183809e+00
4.390059e+02 1.794379e+00
4.446014e+02 1.470985e+00
4.502682e+02 1.203052e+00
4.560072e+02 9.825015e-01
4.618194e+02 8.008009e-01
4.677057e+02 6.511319e-01
4.736670e+02 5.282674e-01
4.797042e+02 4.279646e-01
4.858185e+02 3.458464e-01
4.920106e+02 2.786348e-01
4.982817e+02 2.239051e-01
5.046327e+02 1.794603e-01
5.110646e+02 1.434611e-01
5.175786e+02 1.143792e-01
5.241755e+02 9.079859e-02
5.308566e+02 7.182293e-02
5.376228e+02 5.665415e-02
5.444752e+02 4.456250e-02
5.514150e+02 3.495112e-02
5.584432e+02 2.733319e-02
5.655610e+02 2.131284e-02
5.727696e+02 1.656906e-02
5.800700e+02 1.284232e-02
5.874635e+02 9.930509e-03
5.949511e+02 7.653185e-03
6.025343e+02 5.879692e-03
6.102141e+02 4.502889e-03
6.179917e+02 3.437437e-03
6.258686e+02 2.615576e-03
6.338458e+02 1.983678e-03
6.419246e+02 1.500419e-03
6.501065e+02 1.131712e-03
6.583926e+02 8.529985e-04
6.667844e+02 6.410565e-04
6.752831e+02 4.791623e-04
6.838901e+02 3.560945e-04
6.926068e+02 2.632737e-04
7.014347e+02 1.941258e-04
7.103750e+02 1.427680e-04
7.194293e+02 1.044442e-04
7.285991e+02 7.604147e-05
7.378856e+02 5.514908e-05
7.472906e+02 3.984065e-05
7.568154e+02 2.866772e-05
7.664616e+02 2.059478e-05
7.762308e+02 1.474754e-05
7.861245e+02 1.051765e-05
7.961443e+02 7.470195e-06
8.062918e+02 5.283683e-06
8.165687e+02 3.721433e-06
8.269765e+02 2.607503e-06
8.375170e+02 1.816817e-06
8.481918e+02 1.260313e-06
8.590027e+02 8.712414e-07
8.699514e+02 5.998963e-07
8.810396e+02 4.110656e-07
8.922692e+02 2.803485e-07
9.036419e+02 1.903057e-07
9.151595e+02 1.282369e-07
9.268240e+02 8.619418e-08
9.386371e+02 5.756644e-08
9.506008e+02 3.825661e-08
9.627170e+02 2.529658e-08
9.749876e+02 1.664208e-08
9.874146e+02 1.091108e-08
1.000000e+03 7.117737e-09
