# Energy(MeV) Phi16 Phi84
1.800000e+00 1.599001e+09 2.173011e+09
1.822942e+00 1.576421e+09 2.137175e+09
1.846177e+00 1.553790e+09 2.102321e+09
1.869708e+00 1.531468e+09 2.067993e+09
1.893539e+00 1.509449e+09 2.033779e+09
1.917674e+00 1.487797e+09 2.000728e+09
1.942116e+00 1.466505e+09 1.968281e+09
1.966870e+00 1.445287e+09 1.935787e+09
1.991940e+00 1.424800e+09 1.904046e+09
2.017328e+00 1.404504e+09 1.872781e+09
2.043041e+00 1.384019e+09 1.842098e+09
2.069081e+00 1.364010e+09 1.811277e+09
2.095453e+00 1.343838e+09 1.780587e+09
2.122162e+00 1.324083e+09 1.750711e+09
2.149210e+00 1.304629e+09 1.722342e+09
2.176604e+00 1.285504e+09 1.693530e+09
2.204346e+00 1.267470e+09 1.666690e+09
2.232442e+00 1.249237e+09 1.637413e+09
2.260897e+00 1.231056e+09 1.610325e+09
2.289714e+00 1.213687e+09 1.583892e+09
2.318898e+00 1.196070e+09 1.557216e+09
2.348454e+00 1.178693e+09 1.530742e+09
2.378387e+00 1.161203e+09 1.505112e+09
2.408702e+00 1.143760e+09 1.479771e+09
2.439402e+00 1.126575e+09 1.454999e+09
2.470495e+00 1.109644e+09 1.430880e+09
2.501983e+00 1.092953e+09 1.407143e+09
2.533873e+00 1.076499e+09 1.383757e+09
2.566169e+00 1.060278e+09 1.360208e+09
2.598877e+00 1.044288e+09 1.337526e+09
2.632002e+00 1.028528e+09 1.315001e+09
2.665549e+00 1.013468e+09 1.291980e+09
2.699523e+00 9.983035e+08 1.269282e+09
2.733931e+00 9.836935e+08 1.246816e+09
2.768777e+00 9.684655e+08 1.224772e+09
2.804067e+00 9.532275e+08 1.204094e+09
2.839808e+00 9.392321e+08 1.183946e+09
2.876003e+00 9.254825e+08 1.163551e+09
2.912660e+00 9.114530e+08 1.143576e+09
2.949784e+00 8.975004e+08 1.124554e+09
2.987382e+00 8.837471e+08 1.105704e+09
3.025458e+00 8.703079e+08 1.086813e+09
3.064020e+00 8.571429e+08 1.068380e+09
3.103074e+00 8.440513e+08 1.050553e+09
3.142625e+00 8.310678e+08 1.032806e+09
3.182680e+00 8.181636e+08 1.015248e+09
3.223246e+00 8.055435e+08 9.977408e+08
3.264329e+00 7.932474e+08 9.811249e+08
3.305936e+00 7.812243e+08 9.644336e+08
3.348072e+00 7.693686e+08 9.483779e+08
3.390746e+00 7.577161e+08 9.325571e+08
3.433964e+00 7.462651e+08 9.169047e+08
3.477733e+00 7.349721e+08 9.011713e+08
3.522059e+00 7.238350e+08 8.860162e+08
3.566951e+00 7.129368e+08 8.706529e+08
3.612415e+00 7.020785e+08 8.559420e+08
3.658458e+00 6.911985e+08 8.410889e+08
3.705088e+00 6.806901e+08 8.266641e+08
3.752312e+00 6.705547e+08 8.125575e+08
3.800138e+00 6.603591e+08 7.986441e+08
3.848574e+00 6.499073e+08 7.853361e+08
3.897627e+00 6.398319e+08 7.714602e+08
3.947306e+00 6.300265e+08 7.582116e+08
3.997617e+00 6.203579e+08 7.450117e+08
4.048570e+00 6.105108e+08 7.322223e+08
4.100173e+00 6.009103e+08 7.198666e+08
4.152433e+00 5.914475e+08 7.078262e+08
4.205359e+00 5.820358e+08 6.950884e+08
4.258959e+00 5.728572e+08 6.829324e+08
4.313243e+00 5.639910e+08 6.708563e+08
4.368219e+00 5.554202e+08 6.595643e+08
4.423896e+00 5.469221e+08 6.478292e+08
4.480282e+00 5.385255e+08 6.366939e+08
4.537387e+00 5.302269e+08 6.253542e+08
4.595219e+00 5.214965e+08 6.145268e+08
4.653789e+00 5.132922e+08 6.035204e+08
4.713105e+00 5.053188e+08 5.928590e+08
4.773178e+00 4.974188e+08 5.825702e+08
4.834016e+00 4.896470e+08 5.720356e+08
4.895629e+00 4.815405e+08 5.620420e+08
4.958028e+00 4.738887e+08 5.522198e+08
5.021222e+00 4.665652e+08 5.423511e+08
5.085222e+00 4.589206e+08 5.327781e+08
5.150037e+00 4.516148e+08 5.235052e+08
5.215678e+00 4.445506e+08 5.145395e+08
5.282156e+00 4.375977e+08 5.054219e+08
5.349482e+00 4.305059e+08 4.963881e+08
5.417665e+00 4.236381e+08 4.876959e+08
5.486718e+00 4.168786e+08 4.788094e+08
5.556650e+00 4.101495e+08 4.703149e+08
5.627475e+00 4.029553e+08 4.620727e+08
5.699201e+00 3.964120e+08 4.540315e+08
5.771842e+00 3.899666e+08 4.460066e+08
5.845409e+00 3.835077e+08 4.382346e+08
5.919913e+00 3.769273e+08 4.304951e+08
5.995368e+00 3.707929e+08 4.230592e+08
6.071783e+00 3.645519e+08 4.156843e+08
6.149173e+00 3.584426e+08 4.082648e+08
6.227549e+00 3.524635e+08 4.012355e+08
6.306925e+00 3.464714e+08 3.940355e+08
6.387311e+00 3.404254e+08 3.868387e+08
6.468723e+00 3.346193e+08 3.799061e+08
6.551172e+00 3.289547e+08 3.730636e+08
6.634672e+00 3.233877e+08 3.665526e+08
6.719236e+00 3.180333e+08 3.599496e+08
6.804878e+00 3.126006e+08 3.533832e+08
6.891612e+00 3.071293e+08 3.469861e+08
6.979451e+00 3.018058e+08 3.406608e+08
7.068410e+00 2.966448e+08 3.344268e+08
7.158503e+00 2.913669e+08 3.285361e+08
7.249744e+00 2.864049e+08 3.225574e+08
7.342148e+00 2.815893e+08 3.168625e+08
7.435729e+00 2.766764e+08 3.111898e+08
7.530504e+00 2.718385e+08 3.055567e+08
7.626486e+00 2.669382e+08 2.998809e+08
7.723692e+00 2.623182e+08 2.943560e+08
7.822136e+00 2.577631e+08 2.889226e+08
7.921836e+00 2.531616e+08 2.837745e+08
8.022806e+00 2.486410e+08 2.785380e+08
8.125063e+00 2.443723e+08 2.733690e+08
8.228624e+00 2.401354e+08 2.683150e+08
8.333504e+00 2.357893e+08 2.633732e+08
8.439722e+00 2.315868e+08 2.584805e+08
8.547293e+00 2.274598e+08 2.537507e+08
8.656235e+00 2.234020e+08 2.491711e+08
8.766566e+00 2.193866e+08 2.446764e+08
8.878303e+00 2.152393e+08 2.401248e+08
8.991464e+00 2.113634e+08 2.356487e+08
9.106067e+00 2.074351e+08 2.312773e+08
9.222132e+00 2.036119e+08 2.269033e+08
9.339675e+00 1.998203e+08 2.226949e+08
9.458717e+00 1.959714e+08 2.185185e+08
9.579276e+00 1.923155e+08 2.143623e+08
9.701372e+00 1.888312e+08 2.103656e+08
9.825023e+00 1.853301e+08 2.064082e+08
9.950251e+00 1.818174e+08 2.024352e+08
1.007708e+01 1.783612e+08 1.986645e+08
1.020552e+01 1.749853e+08 1.949679e+08
1.033559e+01 1.714879e+08 1.912708e+08
1.046733e+01 1.682406e+08 1.876125e+08
1.060074e+01 1.649594e+08 1.840304e+08
1.073586e+01 1.617851e+08 1.805322e+08
1.087270e+01 1.587460e+08 1.770651e+08
1.101128e+01 1.556591e+08 1.736639e+08
1.115162e+01 1.525598e+08 1.703067e+08
1.129376e+01 1.496705e+08 1.670316e+08
1.143771e+01 1.467618e+08 1.638201e+08
1.158349e+01 1.438458e+08 1.606362e+08
1.173113e+01 1.409551e+08 1.574483e+08
1.188066e+01 1.381384e+08 1.543251e+08
1.203208e+01 1.354238e+08 1.512958e+08
1.218544e+01 1.326563e+08 1.482895e+08
1.234076e+01 1.300937e+08 1.453360e+08
1.249805e+01 1.275105e+08 1.424632e+08
1.265735e+01 1.250093e+08 1.396029e+08
1.281868e+01 1.225335e+08 1.368133e+08
1.298206e+01 1.200159e+08 1.340860e+08
1.314753e+01 1.175667e+08 1.313963e+08
1.331510e+01 1.150744e+08 1.287544e+08
1.348482e+01 1.126128e+08 1.261614e+08
1.365669e+01 1.103708e+08 1.236099e+08
1.383076e+01 1.080615e+08 1.210923e+08
1.400704e+01 1.058032e+08 1.186240e+08
1.418557e+01 1.035520e+08 1.161867e+08
1.436638e+01 1.013749e+08 1.137816e+08
1.454949e+01 9.930521e+07 1.113984e+08
1.473493e+01 9.728221e+07 1.090975e+08
1.492274e+01 9.523622e+07 1.068692e+08
1.511294e+01 9.325845e+07 1.046404e+08
1.530557e+01 9.135104e+07 1.024671e+08
1.550065e+01 8.940037e+07 1.003166e+08
1.569822e+01 8.749458e+07 9.818373e+07
1.589831e+01 8.559212e+07 9.612017e+07
1.610095e+01 8.374020e+07 9.411005e+07
1.630616e+01 8.191654e+07 9.210282e+07
1.651400e+01 8.012309e+07 9.007527e+07
1.672448e+01 7.839135e+07 8.813042e+07
1.693765e+01 7.669154e+07 8.621583e+07
1.715354e+01 7.502025e+07 8.431160e+07
1.737217e+01 7.337360e+07 8.244970e+07
1.759359e+01 7.173803e+07 8.066129e+07
1.781784e+01 7.012149e+07 7.886292e+07
1.804494e+01 6.860805e+07 7.710812e+07
1.827494e+01 6.707568e+07 7.538451e+07
1.850787e+01 6.555215e+07 7.368351e+07
1.874377e+01 6.408339e+07 7.202292e+07
1.898267e+01 6.263160e+07 7.041126e+07
1.922462e+01 6.123211e+07 6.882266e+07
1.946965e+01 5.985276e+07 6.724724e+07
1.971781e+01 5.850011e+07 6.572275e+07
1.996913e+01 5.715754e+07 6.419496e+07
2.022365e+01 5.580539e+07 6.270670e+07
2.048142e+01 5.448698e+07 6.125851e+07
2.074247e+01 5.323519e+07 5.985365e+07
2.100685e+01 5.197762e+07 5.848567e+07
2.127460e+01 5.071253e+07 5.712135e+07
2.154576e+01 4.953045e+07 5.578101e+07
2.182038e+01 4.835329e+07 5.446758e+07
2.209850e+01 4.721644e+07 5.319430e+07
2.238016e+01 4.609362e+07 5.192988e+07
2.266542e+01 4.497397e+07 5.067728e+07
2.295430e+01 4.386670e+07 4.944512e+07
2.324688e+01 4.279620e+07 4.824434e+07
2.354318e+01 4.172052e+07 4.705940e+07
2.384325e+01 4.069933e+07 4.589861e+07
2.414715e+01 3.970456e+07 4.476801e+07
2.445493e+01 3.870227e+07 4.364046e+07
2.476663e+01 3.773466e+07 4.255456e+07
2.508230e+01 3.678651e+07 4.150296e+07
2.540199e+01 3.587294e+07 4.046475e+07
2.572576e+01 3.496496e+07 3.944636e+07
2.605366e+01 3.408730e+07 3.844821e+07
2.638573e+01 3.318275e+07 3.747253e+07
2.672204e+01 3.229797e+07 3.651673e+07
2.706263e+01 3.146872e+07 3.556004e+07
2.740757e+01 3.065729e+07 3.462598e+07
2.775690e+01 2.985300e+07 3.372326e+07
2.811069e+01 2.906814e+07 3.283680e+07
2.846898e+01 2.828489e+07 3.197219e+07
2.883184e+01 2.751630e+07 3.112529e+07
2.919932e+01 2.676490e+07 3.030238e+07
2.957149e+01 2.604672e+07 2.950490e+07
2.994841e+01 2.531091e+07 2.868916e+07
3.033012e+01 2.462707e+07 2.791021e+07
3.071671e+01 2.395780e+07 2.715014e+07
3.110821e+01 2.329229e+07 2.641286e+07
3.150471e+01 2.265348e+07 2.568644e+07
3.190627e+01 2.203355e+07 2.495931e+07
3.231294e+01 2.141403e+07 2.424972e+07
3.272479e+01 2.081677e+07 2.357362e+07
3.314190e+01 2.023126e+07 2.291240e+07
3.356432e+01 1.964214e+07 2.226014e+07
3.399212e+01 1.904726e+07 2.162696e+07
3.442538e+01 1.851737e+07 2.101357e+07
3.486416e+01 1.797030e+07 2.041621e+07
3.530853e+01 1.745017e+07 1.982736e+07
3.575857e+01 1.694479e+07 1.926054e+07
3.621434e+01 1.644633e+07 1.869133e+07
3.667592e+01 1.595235e+07 1.814427e+07
3.714338e+01 1.545958e+07 1.760487e+07
3.761681e+01 1.498386e+07 1.707755e+07
3.809626e+01 1.452319e+07 1.656706e+07
3.858183e+01 1.409316e+07 1.606319e+07
3.907359e+01 1.366161e+07 1.557827e+07
3.957161e+01 1.322406e+07 1.510029e+07
4.007598e+01 1.279376e+07 1.463808e+07
4.058679e+01 1.239291e+07 1.419135e+07
4.110410e+01 1.200212e+07 1.375135e+07
4.162800e+01 1.160739e+07 1.332202e+07
4.215858e+01 1.123515e+07 1.290345e+07
4.269593e+01 1.087233e+07 1.249504e+07
4.324012e+01 1.052898e+07 1.210172e+07
4.379126e+01 1.018752e+07 1.171966e+07
4.434941e+01 9.848801e+06 1.134188e+07
4.491468e+01 9.526018e+06 1.097219e+07
4.548715e+01 9.189965e+06 1.061742e+07
4.606692e+01 8.873541e+06 1.026053e+07
4.665408e+01 8.559316e+06 9.925000e+06
4.724873e+01 8.266374e+06 9.595126e+06
4.785095e+01 7.972840e+06 9.275758e+06
4.846085e+01 7.697760e+06 8.968733e+06
4.907852e+01 7.415010e+06 8.667537e+06
4.970407e+01 7.148091e+06 8.372243e+06
5.033759e+01 6.884285e+06 8.085801e+06
5.097918e+01 6.627523e+06 7.806164e+06
5.162895e+01 6.381868e+06 7.535748e+06
5.228701e+01 6.145147e+06 7.274365e+06
5.295345e+01 5.917549e+06 7.014812e+06
5.362838e+01 5.696530e+06 6.764401e+06
5.431192e+01 5.485878e+06 6.522161e+06
5.500417e+01 5.271574e+06 6.287806e+06
5.570524e+01 5.068213e+06 6.058085e+06
5.641525e+01 4.868130e+06 5.836715e+06
5.713431e+01 4.671947e+06 5.624594e+06
5.786253e+01 4.482663e+06 5.417349e+06
5.860004e+01 4.299332e+06 5.217302e+06
5.934694e+01 4.131036e+06 5.019580e+06
6.010337e+01 3.961169e+06 4.832416e+06
6.086943e+01 3.800476e+06 4.646524e+06
6.164526e+01 3.640068e+06 4.465840e+06
6.243098e+01 3.489142e+06 4.292023e+06
6.322671e+01 3.345797e+06 4.125070e+06
6.403259e+01 3.202421e+06 3.963601e+06
6.484874e+01 3.066615e+06 3.806488e+06
6.567529e+01 2.929246e+06 3.654220e+06
6.651237e+01 2.805238e+06 3.507824e+06
6.736013e+01 2.686441e+06 3.364513e+06
6.821869e+01 2.567954e+06 3.228969e+06
6.908819e+01 2.454260e+06 3.097731e+06
6.996877e+01 2.343761e+06 2.973557e+06
7.086058e+01 2.238611e+06 2.849926e+06
7.176376e+01 2.135040e+06 2.728288e+06
7.267845e+01 2.034740e+06 2.612134e+06
7.360479e+01 1.938374e+06 2.499845e+06
7.454294e+01 1.848071e+06 2.391569e+06
7.549305e+01 1.757357e+06 2.287023e+06
7.645527e+01 1.671504e+06 2.188180e+06
7.742976e+01 1.589079e+06 2.091317e+06
7.841666e+01 1.508972e+06 1.999334e+06
7.941615e+01 1.432004e+06 1.910965e+06
8.042837e+01 1.359121e+06 1.824933e+06
8.145350e+01 1.289680e+06 1.741387e+06
8.249169e+01 1.223192e+06 1.661251e+06
8.354311e+01 1.159213e+06 1.583241e+06
8.460794e+01 1.097658e+06 1.510247e+06
8.568633e+01 1.038832e+06 1.438885e+06
8.677847e+01 9.826428e+05 1.371697e+06
8.788454e+01 9.289979e+05 1.307172e+06
8.900470e+01 8.779764e+05 1.245592e+06
9.013913e+01 8.293324e+05 1.185372e+06
9.128803e+01 7.829250e+05 1.127096e+06
9.245157e+01 7.386908e+05 1.071037e+06
9.362994e+01 6.964322e+05 1.017436e+06
9.482333e+01 6.562137e+05 9.670211e+05
9.603193e+01 6.179579e+05 9.192120e+05
9.725594e+01 5.815893e+05 8.730744e+05
9.849554e+01 5.470343e+05 8.293405e+05
9.975095e+01 5.142213e+05 7.869656e+05
1.010224e+02 4.830805e+05 7.445408e+05
1.023100e+02 4.536359e+05 7.056566e+05
1.036140e+02 4.261701e+05 6.682118e+05
1.049346e+02 3.999510e+05 6.343931e+05
1.062721e+02 3.750334e+05 6.008436e+05
1.076266e+02 3.512408e+05 5.686292e+05
1.089984e+02 3.293024e+05 5.377707e+05
1.103877e+02 3.079716e+05 5.080881e+05
1.117947e+02 2.878267e+05 4.796189e+05
1.132196e+02 2.688433e+05 4.523687e+05
1.146627e+02 2.509679e+05 4.271525e+05
1.161241e+02 2.342531e+05 4.030101e+05
1.176042e+02 2.181590e+05 3.799402e+05
1.191032e+02 2.031623e+05 3.578436e+05
1.206213e+02 1.890472e+05 3.369412e+05
1.221587e+02 1.757818e+05 3.174954e+05
1.237157e+02 1.633240e+05 2.983631e+05
1.252925e+02 1.516668e+05 2.805631e+05
1.268895e+02 1.407538e+05 2.637881e+05
1.285068e+02 1.306047e+05 2.476261e+05
1.301447e+02 1.211502e+05 2.321427e+05
1.318035e+02 1.122940e+05 2.175753e+05
1.334835e+02 1.040044e+05 2.039966e+05
1.351848e+02 9.617736e+04 1.912573e+05
1.369079e+02 8.876907e+04 1.791123e+05
1.386529e+02 8.186198e+04 1.675985e+05
1.404201e+02 7.544171e+04 1.567690e+05
1.422099e+02 6.964268e+04 1.464489e+05
1.440225e+02 6.423756e+04 1.365744e+05
1.458582e+02 5.917687e+04 1.272285e+05
1.477172e+02 5.438393e+04 1.187365e+05
1.496000e+02 4.993427e+04 1.107896e+05
1.515068e+02 4.581367e+04 1.033585e+05
1.534379e+02 4.202285e+04 9.616572e+04
1.553935e+02 3.851025e+04 8.934542e+04
1.573742e+02 3.525839e+04 8.298943e+04
1.593800e+02 3.225068e+04 7.718755e+04
1.614115e+02 2.947136e+04 7.180420e+04
1.634688e+02 2.690551e+04 6.661615e+04
1.655523e+02 2.450882e+04 6.177861e+04
1.676624e+02 2.229112e+04 5.718613e+04
1.697994e+02 2.023739e+04 5.290252e+04
1.719636e+02 1.834371e+04 4.892335e+04
1.741555e+02 1.660912e+04 4.517272e+04
1.763752e+02 1.504196e+04 4.170507e+04
1.786233e+02 1.361544e+04 3.849026e+04
1.809000e+02 1.231895e+04 3.546373e+04
1.832057e+02 1.112524e+04 3.262366e+04
1.855408e+02 1.003693e+04 3.002859e+04
1.879056e+02 9.043228e+03 2.760939e+04
1.903007e+02 8.144710e+03 2.540195e+04
1.927262e+02 7.324186e+03 2.329008e+04
1.951826e+02 6.574669e+03 2.132659e+04
1.976704e+02 5.893567e+03 1.953222e+04
2.001899e+02 5.280523e+03 1.789016e+04
2.027415e+02 4.725428e+03 1.633432e+04
2.053256e+02 4.224659e+03 1.493529e+04
2.079426e+02 3.772548e+03 1.363152e+04
2.105930e+02 3.364536e+03 1.243480e+04
2.132772e+02 2.996787e+03 1.134297e+04
2.159956e+02 2.665602e+03 1.031048e+04
2.187486e+02 2.367595e+03 9.400290e+03
2.215367e+02 2.100471e+03 8.537820e+03
2.243604e+02 1.861046e+03 7.745183e+03
2.272201e+02 1.646510e+03 7.026280e+03
2.301162e+02 1.455735e+03 6.364196e+03
2.330492e+02 1.285461e+03 5.756040e+03
2.360196e+02 1.133516e+03 5.194131e+03
2.390278e+02 9.979486e+02 4.692576e+03
2.420744e+02 8.771540e+02 4.225437e+03
2.451599e+02 7.698783e+02 3.800990e+03
2.482846e+02 6.748186e+02 3.421680e+03
2.514492e+02 5.897665e+02 3.080324e+03
2.546542e+02 5.145654e+02 2.766041e+03
2.578999e+02 4.485832e+02 2.482504e+03
2.611871e+02 3.907577e+02 2.222818e+03
2.645161e+02 3.398474e+02 1.986750e+03
2.678876e+02 2.950962e+02 1.768808e+03
2.713020e+02 2.558325e+02 1.572738e+03
2.747600e+02 2.214575e+02 1.400324e+03
2.782620e+02 1.913824e+02 1.245711e+03
2.818087e+02 1.651132e+02 1.106552e+03
2.854006e+02 1.419556e+02 9.815256e+02
2.890383e+02 1.218277e+02 8.685977e+02
2.927223e+02 1.043682e+02 7.694487e+02
2.964533e+02 8.925014e+01 6.801736e+02
3.002318e+02 7.618304e+01 6.002639e+02
3.040585e+02 6.490920e+01 5.290267e+02
3.079340e+02 5.520045e+01 4.660620e+02
3.118588e+02 4.685511e+01 4.102202e+02
3.158337e+02 3.969801e+01 3.600647e+02
3.198593e+02 3.357033e+01 3.163888e+02
3.239362e+02 2.833285e+01 2.773333e+02
3.280650e+02 2.386502e+01 2.420730e+02
3.322464e+02 2.006130e+01 2.108602e+02
3.364812e+02 1.683243e+01 1.835004e+02
3.407699e+02 1.410699e+01 1.600440e+02
3.451133e+02 1.179839e+01 1.389429e+02
3.495121e+02 9.846908e+00 1.202478e+02
3.539669e+02 8.200771e+00 1.040778e+02
3.584785e+02 6.815326e+00 9.008813e+01
3.630476e+02 5.651155e+00 7.782655e+01
3.676749e+02 4.668485e+00 6.714890e+01
3.723612e+02 3.847954e+00 5.775347e+01
3.771073e+02 3.164362e+00 4.955643e+01
3.819138e+02 2.596195e+00 4.249792e+01
3.867816e+02 2.125617e+00 3.639140e+01
3.917114e+02 1.737709e+00 3.105379e+01
3.967041e+02 1.418871e+00 2.644005e+01
4.017604e+02 1.153295e+00 2.247013e+01
4.068812e+02 9.344917e-01 1.906050e+01
4.120672e+02 7.553084e-01 1.616354e+01
4.173194e+02 6.089368e-01 1.368686e+01
4.226384e+02 4.902288e-01 1.156757e+01
4.280253e+02 3.936632e-01 9.747503e+00
4.334808e+02 3.153659e-01 8.181787e+00
4.390059e+02 2.519713e-01 6.853612e+00
4.446014e+02 2.007793e-01 5.726862e+00
4.502682e+02 1.595525e-01 4.782606e+00
4.560072e+02 1.264415e-01 3.991518e+00
4.618194e+02 9.992227e-02 3.324307e+00
4.677057e+02 7.874187e-02 2.762752e+00
4.736670e+02 6.187346e-02 2.291126e+00
4.797042e+02 4.847775e-02 1.892281e+00
4.858185e+02 3.787074e-02 1.559494e+00
4.920106e+02 2.949661e-02 1.281182e+00
4.982817e+02 2.290504e-02 1.050921e+00
5.046327e+02 1.773225e-02 8.600418e-01
5.110646e+02 1.368527e-02 7.017138e-01
5.175786e+02 1.052788e-02 5.710195e-01
5.241755e+02 8.073140e-03 4.640536e-01
5.308566e+02 6.170895e-03 3.763672e-01
5.376228e+02 4.701540e-03 3.048383e-01
5.444752e+02 3.570264e-03 2.463334e-01
5.514150e+02 2.702158e-03 1.985583e-01
5.584432e+02 2.038227e-03 1.595877e-01
5.655610e+02 1.532171e-03 1.280475e-01
5.727696e+02 1.147773e-03 1.024901e-01
5.800700e+02 8.567464e-04 8.173755e-02
5.874635e+02 6.370630e-04 6.486333e-02
5.949511e+02 4.720067e-04 5.136677e-02
6.025343e+02 3.484413e-04 4.063280e-02
6.102141e+02 2.562752e-04 3.205260e-02
6.179917e+02 1.877840e-04 2.521312e-02
6.258686e+02 1.370771e-04 1.977657e-02
6.338458e+02 9.967922e-05 1.546752e-02
6.419246e+02 7.220320e-05 1.206201e-02
6.501065e+02 5.209534e-05 9.378473e-03
6.583926e+02 3.743778e-05 7.270114e-03
6.667844e+02 2.679589e-05 5.627067e-03
6.752831e+02 1.910076e-05 4.348582e-03
6.838901e+02 1.355922e-05 3.350275e-03
6.926068e+02 9.585126e-06 2.573140e-03
7.014347e+02 6.747091e-06 1.970059e-03
7.103750e+02 4.728979e-06 1.503525e-03
7.194293e+02 3.300096e-06 1.143774e-03
7.285991e+02 2.292966e-06 8.671967e-04
7.378856e+02 1.586598e-06 6.549899e-04
7.472906e+02 1.093271e-06 4.930516e-04
7.568154e+02 7.508798e-07 3.698897e-04
7.664616e+02 5.133504e-07 2.765384e-04
7.762308e+02 3.493957e-07 2.056400e-04
7.861245e+02 2.365828e-07 1.521281e-04
7.961443e+02 1.592382e-07 1.121327e-04
8.062918e+02 1.066583e-07 8.229576e-05
8.165687e+02 7.113182e-08 6.016025e-05
8.269765e+02 4.724967e-08 4.381205e-05
8.375170e+02 3.122834e-08 3.178399e-05
8.481918e+02 2.053461e-08 2.296037e-05
8.590027e+02 1.343331e-08 1.651941e-05
8.699514e+02 8.741995e-09 1.183786e-05
8.810396e+02 5.652879e-09 8.448762e-06
8.922692e+02 3.626341e-09 6.005254e-06
9.036419e+02 2.313568e-09 4.249812e-06
9.151595e+02 1.467844e-09 2.989737e-06
9.268240e+02 9.260421e-10 2.094259e-06
9.386371e+02 5.809033e-10 1.460624e-06
9.506008e+02 3.622993e-10 1.014221e-06
9.627170e+02 2.246414e-10 7.039821e-07
9.749876e+02 1.384644e-10 4.868709e-07
9.874146e+02 8.494044e-11 3.352091e-07
1.000000e+03 5.179601e-11 2.297433e-07
