Energy(MeV)   SpectralFluence(cm^-2 MeV^-1)
5.000000e-02 7.155727e+10
5.168383e-02 6.850734e+10
5.342437e-02 6.559342e+10
5.522353e-02 6.275446e+10
5.708327e-02 6.002538e+10
5.900565e-02 5.744045e+10
6.099276e-02 5.506107e+10
6.304680e-02 5.268032e+10
6.517000e-02 5.045247e+10
6.736471e-02 4.832077e+10
6.963333e-02 4.622234e+10
7.197835e-02 4.426328e+10
7.440234e-02 4.238275e+10
7.690796e-02 4.056583e+10
7.949797e-02 3.884109e+10
8.217519e-02 3.716875e+10
8.494258e-02 3.555825e+10
8.780317e-02 3.406198e+10
9.076008e-02 3.259280e+10
9.381658e-02 3.118932e+10
9.697601e-02 2.984079e+10
1.002418e-01 2.859194e+10
1.036177e-01 2.740344e+10
1.071072e-01 2.623787e+10
1.107142e-01 2.509549e+10
1.144426e-01 2.400701e+10
1.182967e-01 2.299948e+10
1.222805e-01 2.201397e+10
1.263985e-01 2.107758e+10
1.306552e-01 2.018407e+10
1.350553e-01 1.930526e+10
1.396035e-01 1.849476e+10
1.443048e-01 1.770746e+10
1.491646e-01 1.695634e+10
1.541879e-01 1.624109e+10
1.593805e-01 1.556049e+10
1.647479e-01 1.490150e+10
1.702960e-01 1.425424e+10
1.760310e-01 1.364040e+10
1.819592e-01 1.306128e+10
1.880869e-01 1.250789e+10
1.944211e-01 1.197850e+10
2.009685e-01 1.147387e+10
2.077365e-01 1.097290e+10
2.147324e-01 1.049176e+10
2.219638e-01 1.004242e+10
2.294388e-01 9.615506e+09
2.371656e-01 9.195481e+09
2.451525e-01 8.804764e+09
2.534084e-01 8.430474e+09
2.619424e-01 8.067723e+09
2.707637e-01 7.719069e+09
2.798822e-01 7.392124e+09
2.893077e-01 7.071354e+09
2.990506e-01 6.763128e+09
3.091216e-01 6.458262e+09
3.195318e-01 6.177069e+09
3.302926e-01 5.918179e+09
3.414157e-01 5.660474e+09
3.529135e-01 5.422179e+09
3.647984e-01 5.193479e+09
3.770836e-01 4.963951e+09
3.897825e-01 4.750638e+09
4.029091e-01 4.548755e+09
4.164778e-01 4.353831e+09
4.305033e-01 4.161578e+09
4.450013e-01 3.984234e+09
4.599874e-01 3.810415e+09
4.754783e-01 3.646830e+09
4.914908e-01 3.488216e+09
5.080426e-01 3.338547e+09
5.251518e-01 3.193767e+09
5.428371e-01 3.052584e+09
5.611181e-01 2.914405e+09
5.800147e-01 2.785937e+09
5.995476e-01 2.663988e+09
6.197384e-01 2.546663e+09
6.406091e-01 2.435669e+09
6.621827e-01 2.330080e+09
6.844828e-01 2.228695e+09
7.075339e-01 2.129297e+09
7.313613e-01 2.036982e+09
7.559911e-01 1.947576e+09
7.814504e-01 1.863243e+09
8.077670e-01 1.780788e+09
8.349699e-01 1.702054e+09
8.630889e-01 1.626755e+09
8.921549e-01 1.554471e+09
9.221997e-01 1.486678e+09
9.532563e-01 1.419777e+09
9.853588e-01 1.355789e+09
1.018542e+00 1.294487e+09
1.052844e+00 1.235510e+09
1.088300e+00 1.179365e+09
1.124950e+00 1.125863e+09
1.162835e+00 1.075809e+09
1.201995e+00 1.027483e+09
1.242474e+00 9.806194e+08
1.284317e+00 9.369116e+08
1.327568e+00 8.950603e+08
1.372276e+00 8.539377e+08
1.418490e+00 8.155748e+08
1.466260e+00 7.780511e+08
1.515639e+00 7.424499e+08
1.566680e+00 7.080052e+08
1.619441e+00 6.759492e+08
1.673978e+00 6.450206e+08
1.730352e+00 6.149863e+08
1.788625e+00 5.866105e+08
1.848860e+00 5.592887e+08
1.911123e+00 5.333731e+08
1.975484e+00 5.084743e+08
2.042011e+00 4.844050e+08
2.110780e+00 4.618278e+08
2.181864e+00 4.401674e+08
2.255341e+00 4.193851e+08
2.331294e+00 3.993530e+08
2.409804e+00 3.799863e+08
2.490958e+00 3.617709e+08
2.574845e+00 3.441279e+08
2.661558e+00 3.278105e+08
2.751190e+00 3.120217e+08
2.843841e+00 2.969317e+08
2.939612e+00 2.821905e+08
3.038609e+00 2.681448e+08
3.140939e+00 2.549360e+08
3.246715e+00 2.423233e+08
3.356054e+00 2.303739e+08
3.469074e+00 2.188569e+08
3.585901e+00 2.078015e+08
3.706663e+00 1.972696e+08
3.831491e+00 1.872451e+08
3.960522e+00 1.777660e+08
4.093900e+00 1.686608e+08
4.231769e+00 1.600375e+08
4.374280e+00 1.515712e+08
4.521592e+00 1.437025e+08
4.673864e+00 1.362555e+08
4.831264e+00 1.290168e+08
4.993965e+00 1.221719e+08
5.162145e+00 1.157174e+08
5.335989e+00 1.095262e+08
5.515687e+00 1.034575e+08
5.701437e+00 9.776681e+07
5.893443e+00 9.231409e+07
6.091914e+00 8.731996e+07
6.297070e+00 8.241239e+07
6.509134e+00 7.782165e+07
6.728340e+00 7.327408e+07
6.954928e+00 6.896642e+07
7.189147e+00 6.503876e+07
7.431253e+00 6.102549e+07
7.681513e+00 5.741478e+07
7.940201e+00 5.405885e+07
8.207601e+00 5.089145e+07
8.484005e+00 4.780062e+07
8.769719e+00 4.494518e+07
9.065053e+00 4.217996e+07
9.370334e+00 3.965027e+07
9.685896e+00 3.714938e+07
1.001208e+01 3.476088e+07
1.034926e+01 3.261258e+07
1.069779e+01 3.054605e+07
1.105805e+01 2.853883e+07
1.143045e+01 2.666330e+07
1.181539e+01 2.486532e+07
1.221329e+01 2.321491e+07
1.262460e+01 2.168262e+07
1.304975e+01 2.024028e+07
1.348922e+01 1.885890e+07
1.394350e+01 1.756844e+07
1.441307e+01 1.630632e+07
1.489845e+01 1.515890e+07
1.540018e+01 1.407830e+07
1.591881e+01 1.310598e+07
1.645490e+01 1.212919e+07
1.700905e+01 1.124951e+07
1.758185e+01 1.039163e+07
1.817395e+01 9.624759e+06
1.878599e+01 8.909120e+06
1.941864e+01 8.245544e+06
2.007260e+01 7.615885e+06
2.074857e+01 7.024988e+06
2.144732e+01 6.479855e+06
2.216959e+01 5.971086e+06
2.291619e+01 5.487046e+06
2.368793e+01 5.055914e+06
2.448566e+01 4.639924e+06
2.531026e+01 4.265948e+06
2.616262e+01 3.931736e+06
2.704369e+01 3.605236e+06
2.795443e+01 3.309846e+06
2.889585e+01 3.027419e+06
2.986896e+01 2.773499e+06
3.087485e+01 2.552476e+06
3.191461e+01 2.345512e+06
3.298939e+01 2.151161e+06
3.410036e+01 1.973707e+06
3.524875e+01 1.806579e+06
3.643581e+01 1.652332e+06
3.766285e+01 1.516320e+06
3.893121e+01 1.387482e+06
4.024228e+01 1.271746e+06
4.159751e+01 1.164955e+06
4.299837e+01 1.068135e+06
4.444641e+01 9.771049e+05
4.594322e+01 8.908458e+05
4.749044e+01 8.151929e+05
4.908976e+01 7.439509e+05
5.074294e+01 6.794134e+05
5.245179e+01 6.206180e+05
5.421819e+01 5.678340e+05
5.604408e+01 5.200920e+05
5.793146e+01 4.747298e+05
5.988240e+01 4.329812e+05
6.189904e+01 3.958252e+05
6.398359e+01 3.623646e+05
6.613834e+01 3.311470e+05
6.836566e+01 3.025944e+05
7.066799e+01 2.770828e+05
7.304785e+01 2.521861e+05
7.550786e+01 2.306421e+05
7.805072e+01 2.108468e+05
8.067920e+01 1.925858e+05
8.339621e+01 1.757294e+05
8.620472e+01 1.605790e+05
8.910781e+01 1.469639e+05
9.210866e+01 1.341603e+05
9.521057e+01 1.221169e+05
9.841695e+01 1.117982e+05
1.017313e+02 1.019399e+05
1.051573e+02 9.297053e+04
1.086986e+02 8.510655e+04
1.123592e+02 7.772402e+04
1.161431e+02 7.093636e+04
1.200544e+02 6.467735e+04
1.240975e+02 5.907502e+04
1.282767e+02 5.401164e+04
1.325966e+02 4.925847e+04
1.370620e+02 4.492113e+04
1.416778e+02 4.094033e+04
1.464490e+02 3.739410e+04
1.513809e+02 3.411233e+04
1.564789e+02 3.118611e+04
1.617486e+02 2.849421e+04
1.671958e+02 2.598651e+04
1.728264e+02 2.368806e+04
1.786466e+02 2.165925e+04
1.846628e+02 1.977999e+04
1.908817e+02 1.804915e+04
1.973099e+02 1.649249e+04
2.039547e+02 1.508214e+04
2.108232e+02 1.377668e+04
2.179230e+02 1.256674e+04
2.252619e+02 1.146960e+04
2.328480e+02 1.044909e+04
2.406895e+02 9.593440e+03
2.487952e+02 8.756357e+03
2.571738e+02 7.999779e+03
2.658345e+02 7.309492e+03
2.747869e+02 6.677866e+03
2.840408e+02 6.097111e+03
2.936064e+02 5.570333e+03
3.034941e+02 5.087988e+03
3.137148e+02 4.650970e+03
3.242796e+02 4.248179e+03
3.352003e+02 3.882167e+03
3.464887e+02 3.555860e+03
3.581573e+02 3.256377e+03
3.702189e+02 2.976847e+03
3.826866e+02 2.725173e+03
3.955742e+02 2.487061e+03
4.088958e+02 2.273341e+03
4.226661e+02 2.077998e+03
4.369001e+02 1.906957e+03
4.516134e+02 1.739528e+03
4.668222e+02 1.588267e+03
4.825433e+02 1.449746e+03
4.987937e+02 1.321681e+03
5.155914e+02 1.209289e+03
5.329548e+02 1.101372e+03
5.509030e+02 1.006314e+03
5.694556e+02 9.202428e+02
5.886329e+02 8.397079e+02
6.084561e+02 7.672249e+02
6.289469e+02 7.004524e+02
6.501277e+02 6.406665e+02
6.720219e+02 5.837846e+02
6.946533e+02 5.316127e+02
7.180470e+02 4.845582e+02
7.422284e+02 4.408716e+02
7.672242e+02 4.031867e+02
7.930617e+02 3.687393e+02
8.197694e+02 3.366239e+02
8.473765e+02 3.073017e+02
8.759133e+02 2.806811e+02
9.054112e+02 2.572483e+02
9.359024e+02 2.362786e+02
9.674205e+02 2.168832e+02
1.000000e+03 1.979319e+02
