# Energy(MeV) Sferica_Fluence(cm^-2*MeV^-1)
5.000000e-01 1.128700e+12
5.076744e-01 1.103521e+12
5.154667e-01 1.078890e+12
5.233785e-01 1.054796e+12
5.314118e-01 1.031227e+12
5.395683e-01 1.008160e+12
5.478501e-01 9.855345e+11
5.562590e-01 9.634047e+11
5.647969e-01 9.417595e+11
5.734659e-01 9.205884e+11
5.822680e-01 8.998812e+11
5.912051e-01 8.796279e+11
6.002795e-01 8.598186e+11
6.094931e-01 8.404437e+11
6.188481e-01 8.214938e+11
6.283467e-01 8.029901e+11
6.379911e-01 7.849184e+11
6.477836e-01 7.672421e+11
6.577263e-01 7.499456e+11
6.678217e-01 7.329770e+11
6.780720e-01 7.163815e+11
6.884796e-01 7.001511e+11
6.990470e-01 6.842778e+11
7.097766e-01 6.687349e+11
7.206709e-01 6.535286e+11
7.317324e-01 6.387073e+11
7.429636e-01 6.242117e+11
7.543673e-01 6.100655e+11
7.659460e-01 5.962466e+11
7.777024e-01 5.827309e+11
7.896392e-01 5.695118e+11
8.017593e-01 5.565829e+11
8.140654e-01 5.439380e+11
8.265604e-01 5.315619e+11
8.392472e-01 5.193704e+11
8.521287e-01 5.074491e+11
8.652079e-01 4.957921e+11
8.784878e-01 4.843935e+11
8.919716e-01 4.732479e+11
9.056624e-01 4.623496e+11
9.195633e-01 4.516816e+11
9.336776e-01 4.412984e+11
9.480084e-01 4.311467e+11
9.625593e-01 4.212201e+11
9.773335e-01 4.115137e+11
9.923345e-01 4.020227e+11
1.007566e+00 3.927424e+11
1.023031e+00 3.836682e+11
1.038733e+00 3.748367e+11
1.054676e+00 3.662214e+11
1.070865e+00 3.577851e+11
1.087301e+00 3.495264e+11
1.103990e+00 3.414262e+11
1.120935e+00 3.334713e+11
1.138140e+00 3.256940e+11
1.155609e+00 3.180906e+11
1.173346e+00 3.106574e+11
1.191356e+00 3.033904e+11
1.209642e+00 2.962863e+11
1.228209e+00 2.893447e+11
1.247060e+00 2.825855e+11
1.266201e+00 2.759822e+11
1.285636e+00 2.695266e+11
1.305369e+00 2.632153e+11
1.325405e+00 2.570453e+11
1.345748e+00 2.510136e+11
1.366404e+00 2.451170e+11
1.387377e+00 2.393526e+11
1.408672e+00 2.337176e+11
1.430293e+00 2.281997e+11
1.452247e+00 2.227974e+11
1.474537e+00 2.175169e+11
1.497169e+00 2.123554e+11
1.520149e+00 2.073104e+11
1.543482e+00 2.023794e+11
1.567172e+00 1.975598e+11
1.591227e+00 1.928492e+11
1.615650e+00 1.882453e+11
1.640449e+00 1.837513e+11
1.665628e+00 1.793741e+11
1.691193e+00 1.750959e+11
1.717151e+00 1.709033e+11
1.743508e+00 1.668054e+11
1.770268e+00 1.628006e+11
1.797440e+00 1.588869e+11
1.825029e+00 1.550421e+11
1.853041e+00 1.512790e+11
1.881483e+00 1.476023e+11
1.910362e+00 1.440187e+11
1.939683e+00 1.405424e+11
1.969455e+00 1.371615e+11
1.999684e+00 1.338287e+11
2.030377e+00 1.305826e+11
2.061541e+00 1.274082e+11
2.093184e+00 1.242984e+11
2.125312e+00 1.212563e+11
2.157933e+00 1.182929e+11
2.191055e+00 1.154025e+11
2.224685e+00 1.125686e+11
2.258831e+00 1.098004e+11
2.293502e+00 1.070994e+11
2.328704e+00 1.044609e+11
2.364447e+00 1.018833e+11
2.400739e+00 9.936921e+10
2.437588e+00 9.691602e+10
2.475002e+00 9.451261e+10
2.512990e+00 9.216416e+10
2.551562e+00 8.987375e+10
2.590725e+00 8.764329e+10
2.630490e+00 8.546460e+10
2.670865e+00 8.333654e+10
2.711860e+00 8.125798e+10
2.753484e+00 7.923258e+10
2.795747e+00 7.725094e+10
2.838658e+00 7.531206e+10
2.882229e+00 7.340928e+10
2.926468e+00 7.155483e+10
2.971386e+00 6.974430e+10
3.016993e+00 6.798907e+10
3.063300e+00 6.627492e+10
3.110319e+00 6.460096e+10
3.158058e+00 6.296629e+10
3.206531e+00 6.137005e+10
3.255748e+00 5.980771e+10
3.305720e+00 5.827119e+10
3.356459e+00 5.677126e+10
3.407977e+00 5.530542e+10
3.460285e+00 5.387927e+10
3.513397e+00 5.249190e+10
3.567323e+00 5.113614e+10
3.622078e+00 4.981232e+10
3.677673e+00 4.851569e+10
3.734121e+00 4.724690e+10
3.791435e+00 4.600881e+10
3.849630e+00 4.480073e+10
3.908717e+00 4.362127e+10
3.968711e+00 4.247117e+10
4.029627e+00 4.134903e+10
4.091477e+00 4.025598e+10
4.154276e+00 3.919198e+10
4.218040e+00 3.815300e+10
4.282782e+00 3.713938e+10
4.348518e+00 3.615057e+10
4.415263e+00 3.518598e+10
4.483032e+00 3.424636e+10
4.551842e+00 3.333110e+10
4.621707e+00 3.243851e+10
4.692645e+00 3.156870e+10
4.764672e+00 3.071574e+10
4.837804e+00 2.988391e+10
4.912059e+00 2.907272e+10
4.987454e+00 2.828408e+10
5.064006e+00 2.751740e+10
5.141732e+00 2.676974e+10
5.220652e+00 2.604067e+10
5.300783e+00 2.532977e+10
5.382144e+00 2.463544e+10
5.464754e+00 2.395486e+10
5.548632e+00 2.329145e+10
5.633797e+00 2.264483e+10
5.720270e+00 2.201579e+10
5.808069e+00 2.140475e+10
5.897217e+00 2.081091e+10
5.987732e+00 2.023209e+10
6.079637e+00 1.966684e+10
6.172953e+00 1.911289e+10
6.267701e+00 1.857544e+10
6.363903e+00 1.805248e+10
6.461581e+00 1.754118e+10
6.560759e+00 1.704345e+10
6.661460e+00 1.656225e+10
6.763706e+00 1.609340e+10
6.867521e+00 1.563557e+10
6.972929e+00 1.518773e+10
7.079956e+00 1.475154e+10
7.188625e+00 1.432671e+10
7.298963e+00 1.391297e+10
7.410994e+00 1.351024e+10
7.524744e+00 1.311773e+10
7.640240e+00 1.273328e+10
7.757509e+00 1.236215e+10
7.876578e+00 1.200066e+10
7.997475e+00 1.164851e+10
8.120227e+00 1.130567e+10
8.244863e+00 1.097046e+10
8.371413e+00 1.064382e+10
8.499905e+00 1.032523e+10
8.630369e+00 1.001815e+10
8.762835e+00 9.718273e+09
8.897335e+00 9.425016e+09
9.033899e+00 9.140811e+09
9.172559e+00 8.864678e+09
9.313347e+00 8.596092e+09
9.456297e+00 8.335263e+09
9.601440e+00 8.081213e+09
9.748811e+00 7.832541e+09
9.898445e+00 7.590765e+09
1.005037e+01 7.356885e+09
1.020464e+01 7.128955e+09
1.036127e+01 6.907819e+09
1.052030e+01 6.693999e+09
1.068177e+01 6.486229e+09
1.084573e+01 6.284906e+09
1.101220e+01 6.088517e+09
1.118122e+01 5.896071e+09
1.135284e+01 5.708767e+09
1.152709e+01 5.527997e+09
1.170402e+01 5.353255e+09
1.188367e+01 5.183353e+09
1.206607e+01 5.017756e+09
1.225127e+01 4.857084e+09
1.243931e+01 4.701050e+09
1.263024e+01 4.548938e+09
1.282410e+01 4.401595e+09
1.302094e+01 4.258405e+09
1.322079e+01 4.118395e+09
1.342372e+01 3.983226e+09
1.362976e+01 3.852387e+09
1.383896e+01 3.724541e+09
1.405137e+01 3.601217e+09
1.426704e+01 3.481150e+09
1.448602e+01 3.365614e+09
1.470837e+01 3.252484e+09
1.493413e+01 3.143494e+09
1.516335e+01 3.037938e+09
1.539609e+01 2.935212e+09
1.563240e+01 2.835787e+09
1.587234e+01 2.738785e+09
1.611596e+01 2.644753e+09
1.636332e+01 2.553929e+09
1.661448e+01 2.465789e+09
1.686950e+01 2.379960e+09
1.712842e+01 2.296839e+09
1.739133e+01 2.216827e+09
1.765826e+01 2.139512e+09
1.792930e+01 2.064612e+09
1.820449e+01 1.992054e+09
1.848391e+01 1.921687e+09
1.876762e+01 1.853261e+09
1.905568e+01 1.787140e+09
1.934816e+01 1.723125e+09
1.964514e+01 1.660774e+09
1.994667e+01 1.600262e+09
2.025283e+01 1.542364e+09
2.056368e+01 1.486196e+09
2.087931e+01 1.431369e+09
2.119979e+01 1.378558e+09
2.152518e+01 1.327654e+09
2.185557e+01 1.278427e+09
2.219102e+01 1.230827e+09
2.253163e+01 1.184911e+09
2.287747e+01 1.140306e+09
2.322861e+01 1.097327e+09
2.358514e+01 1.055777e+09
2.394715e+01 1.015507e+09
2.431471e+01 9.763496e+08
2.468791e+01 9.385561e+08
2.506685e+01 9.022042e+08
2.545159e+01 8.670700e+08
2.584225e+01 8.330643e+08
2.623890e+01 8.003296e+08
2.664163e+01 7.688009e+08
2.705055e+01 7.383815e+08
2.746575e+01 7.093606e+08
2.788732e+01 6.813922e+08
2.831535e+01 6.542908e+08
2.874996e+01 6.281501e+08
2.919124e+01 6.029403e+08
2.963930e+01 5.786302e+08
3.009423e+01 5.550242e+08
3.055614e+01 5.322212e+08
3.102514e+01 5.102819e+08
3.150134e+01 4.893455e+08
3.198485e+01 4.691069e+08
3.247578e+01 4.496197e+08
3.297425e+01 4.309155e+08
3.348037e+01 4.130262e+08
3.399425e+01 3.956862e+08
3.451603e+01 3.788756e+08
3.504581e+01 3.627696e+08
3.558372e+01 3.472499e+08
3.612989e+01 3.323316e+08
3.668444e+01 3.179723e+08
3.724751e+01 3.041293e+08
3.781922e+01 2.908366e+08
3.839970e+01 2.780651e+08
3.898909e+01 2.657586e+08
3.958753e+01 2.538949e+08
4.019515e+01 2.425069e+08
4.081210e+01 2.315753e+08
4.143852e+01 2.211282e+08
4.207456e+01 2.111281e+08
4.272035e+01 2.015890e+08
4.337606e+01 1.923334e+08
4.404184e+01 1.835220e+08
4.471783e+01 1.750862e+08
4.540420e+01 1.669892e+08
4.610110e+01 1.591708e+08
4.680870e+01 1.516949e+08
4.752716e+01 1.445949e+08
4.825665e+01 1.377718e+08
4.899734e+01 1.312331e+08
4.974939e+01 1.249528e+08
5.051299e+01 1.189415e+08
5.128830e+01 1.131988e+08
5.207552e+01 1.076830e+08
5.287482e+01 1.023973e+08
5.368639e+01 9.736819e+07
5.451042e+01 9.256853e+07
5.534709e+01 8.798032e+07
5.619661e+01 8.360465e+07
5.705916e+01 7.941637e+07
5.793495e+01 7.541096e+07
5.882419e+01 7.161736e+07
5.972707e+01 6.799157e+07
6.064382e+01 6.450891e+07
6.157463e+01 6.116385e+07
6.251973e+01 5.798378e+07
6.347934e+01 5.497463e+07
6.445368e+01 5.208335e+07
6.544297e+01 4.932793e+07
6.644744e+01 4.670874e+07
6.746734e+01 4.422092e+07
6.850288e+01 4.184670e+07
6.955433e+01 3.958923e+07
7.062191e+01 3.745385e+07
7.170587e+01 3.541059e+07
7.280648e+01 3.346135e+07
7.392398e+01 3.160993e+07
7.505862e+01 2.986157e+07
7.621069e+01 2.819085e+07
7.738044e+01 2.660922e+07
7.856814e+01 2.511364e+07
7.977407e+01 2.367702e+07
8.099851e+01 2.230873e+07
8.224175e+01 2.101455e+07
8.350407e+01 1.979836e+07
8.478576e+01 1.864554e+07
8.608713e+01 1.755281e+07
8.740847e+01 1.652265e+07
8.875009e+01 1.554171e+07
9.011230e+01 1.461004e+07
9.149543e+01 1.373314e+07
9.289978e+01 1.290356e+07
9.432568e+01 1.212212e+07
9.577348e+01 1.138089e+07
9.724349e+01 1.068304e+07
9.873607e+01 1.001999e+07
1.002516e+02 9.396141e+06
1.017903e+02 8.804522e+06
1.033527e+02 8.248459e+06
1.049390e+02 7.724307e+06
1.065497e+02 7.228840e+06
1.081851e+02 6.759264e+06
1.098457e+02 6.318541e+06
1.115317e+02 5.904261e+06
1.132435e+02 5.512347e+06
1.149817e+02 5.145393e+06
1.167465e+02 4.797415e+06
1.185385e+02 4.473668e+06
1.203579e+02 4.169995e+06
1.222053e+02 3.878161e+06
1.240810e+02 3.605925e+06
1.259855e+02 3.355346e+06
1.279192e+02 3.112954e+06
1.298826e+02 2.889362e+06
1.318762e+02 2.681163e+06
1.339003e+02 2.483568e+06
1.359555e+02 2.299852e+06
1.380423e+02 2.127350e+06
1.401611e+02 1.967987e+06
1.423124e+02 1.825141e+06
1.444968e+02 1.688727e+06
1.467146e+02 1.563482e+06
1.489665e+02 1.448258e+06
1.512530e+02 1.339187e+06
1.535746e+02 1.237074e+06
1.559317e+02 1.144214e+06
1.583251e+02 1.057271e+06
1.607552e+02 9.776687e+05
1.632226e+02 9.008996e+05
1.657279e+02 8.323962e+05
1.682717e+02 7.687319e+05
1.708544e+02 7.095629e+05
1.734769e+02 6.546939e+05
1.761395e+02 6.047769e+05
1.788431e+02 5.586591e+05
1.815881e+02 5.162946e+05
1.843753e+02 4.762354e+05
1.872053e+02 4.394500e+05
1.900786e+02 4.050378e+05
1.929961e+02 3.740567e+05
1.959584e+02 3.453481e+05
1.989662e+02 3.188118e+05
2.020201e+02 2.942841e+05
2.051208e+02 2.716928e+05
2.082692e+02 2.507489e+05
2.114659e+02 2.311592e+05
2.147117e+02 2.133876e+05
2.180073e+02 1.967090e+05
2.213534e+02 1.815775e+05
2.247509e+02 1.675273e+05
2.282006e+02 1.545419e+05
2.317032e+02 1.423798e+05
2.352596e+02 1.311583e+05
2.388706e+02 1.208868e+05
2.425370e+02 1.114013e+05
2.462597e+02 1.025793e+05
2.500395e+02 9.453243e+04
2.538773e+02 8.702885e+04
2.577740e+02 8.032371e+04
2.617306e+02 7.392110e+04
2.657478e+02 6.806298e+04
2.698268e+02 6.266935e+04
2.739683e+02 5.775412e+04
2.781734e+02 5.317386e+04
2.824430e+02 4.896641e+04
2.867782e+02 4.516821e+04
2.911799e+02 4.154552e+04
2.956492e+02 3.826091e+04
3.001871e+02 3.526190e+04
3.047946e+02 3.244883e+04
3.094729e+02 2.986313e+04
3.142230e+02 2.749147e+04
3.190459e+02 2.526637e+04
3.239429e+02 2.324774e+04
3.289151e+02 2.144535e+04
3.339636e+02 1.973223e+04
3.390895e+02 1.814788e+04
3.442942e+02 1.667983e+04
3.495787e+02 1.534108e+04
3.549443e+02 1.410849e+04
3.603923e+02 1.296858e+04
3.659239e+02 1.194769e+04
3.715405e+02 1.098388e+04
3.772432e+02 1.009866e+04
3.830334e+02 9.289811e+03
3.889126e+02 8.530449e+03
3.948819e+02 7.829074e+03
4.009429e+02 7.191190e+03
4.070970e+02 6.606334e+03
4.133454e+02 6.069108e+03
4.196898e+02 5.568920e+03
4.261316e+02 5.106556e+03
4.326722e+02 4.682145e+03
4.393133e+02 4.297556e+03
4.460562e+02 3.943308e+03
4.529027e+02 3.614419e+03
4.598542e+02 3.313089e+03
4.669125e+02 3.035663e+03
4.740790e+02 2.785528e+03
4.813556e+02 2.553794e+03
4.887439e+02 2.344648e+03
4.962456e+02 2.151527e+03
5.038624e+02 1.973654e+03
5.115961e+02 1.809637e+03
5.194485e+02 1.660325e+03
5.274215e+02 1.520798e+03
5.355168e+02 1.393214e+03
5.437364e+02 1.278081e+03
5.520821e+02 1.171966e+03
5.605559e+02 1.073653e+03
5.691598e+02 9.832512e+02
5.778958e+02 9.002650e+02
5.867659e+02 8.252190e+02
5.957720e+02 7.557933e+02
6.049165e+02 6.923121e+02
6.142013e+02 6.336759e+02
6.236286e+02 5.801113e+02
6.332005e+02 5.306488e+02
6.429195e+02 4.850048e+02
6.527876e+02 4.426320e+02
6.628071e+02 4.040727e+02
6.729804e+02 3.693626e+02
6.833099e+02 3.380793e+02
6.937980e+02 3.092770e+02
7.044470e+02 2.826112e+02
7.152595e+02 2.581885e+02
7.262379e+02 2.358182e+02
7.373848e+02 2.153996e+02
7.487028e+02 1.965749e+02
7.601946e+02 1.795083e+02
7.718627e+02 1.640183e+02
7.837099e+02 1.496739e+02
7.957390e+02 1.367960e+02
8.079527e+02 1.250102e+02
8.203539e+02 1.141580e+02
8.329454e+02 1.041504e+02
8.457301e+02 9.500321e+01
8.587111e+02 8.659005e+01
8.718914e+02 7.894885e+01
8.852739e+02 7.184777e+01
8.988619e+02 6.535703e+01
9.126584e+02 5.950350e+01
9.266667e+02 5.423575e+01
9.408900e+02 4.941057e+01
9.553316e+02 4.499401e+01
9.699948e+02 4.096483e+01
9.848832e+02 3.734397e+01
1.000000e+03 3.400870e+01
