# Energy(MeV) Phi16 Phi84
5.000000e-01 9.891307e+11 1.256842e+12
5.076744e-01 9.670989e+11 1.228665e+12
5.154667e-01 9.455463e+11 1.201103e+12
5.233785e-01 9.244627e+11 1.174146e+12
5.314118e-01 9.038379e+11 1.147819e+12
5.395683e-01 8.836622e+11 1.122138e+12
5.478501e-01 8.639257e+11 1.097017e+12
5.562590e-01 8.445955e+11 1.072417e+12
5.647969e-01 8.256135e+11 1.048322e+12
5.734659e-01 8.070474e+11 1.024687e+12
5.822680e-01 7.888884e+11 1.001557e+12
5.912051e-01 7.711276e+11 9.789349e+11
6.002795e-01 7.537563e+11 9.567996e+11
6.094931e-01 7.367661e+11 9.351501e+11
6.188481e-01 7.201551e+11 9.139771e+11
6.283467e-01 7.039248e+11 8.932705e+11
6.379911e-01 6.880504e+11 8.730200e+11
6.477836e-01 6.725488e+11 8.532269e+11
6.577263e-01 6.574641e+11 8.338938e+11
6.678217e-01 6.427080e+11 8.149845e+11
6.780720e-01 6.282673e+11 7.964873e+11
6.884796e-01 6.140467e+11 7.783977e+11
6.990470e-01 6.001385e+11 7.607069e+11
7.097766e-01 5.865362e+11 7.434002e+11
7.206709e-01 5.732329e+11 7.264419e+11
7.317324e-01 5.602223e+11 7.098588e+11
7.429636e-01 5.474901e+11 6.936377e+11
7.543673e-01 5.349748e+11 6.778433e+11
7.659460e-01 5.227366e+11 6.624094e+11
7.777024e-01 5.107694e+11 6.472659e+11
7.896392e-01 4.990673e+11 6.324571e+11
8.017593e-01 4.876245e+11 6.179667e+11
8.140654e-01 4.764355e+11 6.037976e+11
8.265604e-01 4.655075e+11 5.899427e+11
8.392472e-01 4.548572e+11 5.763951e+11
8.521287e-01 4.445159e+11 5.631646e+11
8.652079e-01 4.344283e+11 5.503652e+11
8.784878e-01 4.245668e+11 5.377370e+11
8.919716e-01 4.148960e+11 5.253615e+11
9.056624e-01 4.053734e+11 5.132608e+11
9.195633e-01 3.960615e+11 5.014290e+11
9.336776e-01 3.869557e+11 4.899172e+11
9.480084e-01 3.780516e+11 4.786820e+11
9.625593e-01 3.693520e+11 4.676559e+11
9.773335e-01 3.608508e+11 4.568620e+11
9.923345e-01 3.524864e+11 4.463079e+11
1.007566e+00 3.444269e+11 4.359885e+11
1.023031e+00 3.365410e+11 4.258985e+11
1.038733e+00 3.287867e+11 4.160327e+11
1.054676e+00 3.211944e+11 4.063731e+11
1.070865e+00 3.137673e+11 3.969289e+11
1.087301e+00 3.065050e+11 3.876955e+11
1.103990e+00 2.994062e+11 3.786683e+11
1.120935e+00 2.925079e+11 3.698428e+11
1.138140e+00 2.857619e+11 3.612145e+11
1.155609e+00 2.791575e+11 3.527792e+11
1.173346e+00 2.726776e+11 3.445327e+11
1.191356e+00 2.663417e+11 3.364708e+11
1.209642e+00 2.601467e+11 3.286009e+11
1.228209e+00 2.540895e+11 3.209267e+11
1.247060e+00 2.481672e+11 3.134240e+11
1.266201e+00 2.423769e+11 3.060572e+11
1.285636e+00 2.367157e+11 2.988517e+11
1.305369e+00 2.311808e+11 2.918081e+11
1.325405e+00 2.257694e+11 2.849574e+11
1.345748e+00 2.204789e+11 2.783023e+11
1.366404e+00 2.153067e+11 2.717954e+11
1.387377e+00 2.102501e+11 2.654334e+11
1.408672e+00 2.053068e+11 2.592070e+11
1.430293e+00 2.004741e+11 2.531014e+11
1.452247e+00 1.957498e+11 2.471329e+11
1.474537e+00 1.911314e+11 2.412985e+11
1.497169e+00 1.866167e+11 2.355952e+11
1.520149e+00 1.822034e+11 2.300203e+11
1.543482e+00 1.778892e+11 2.245708e+11
1.567172e+00 1.736621e+11 2.192387e+11
1.591227e+00 1.694952e+11 2.140231e+11
1.615650e+00 1.654246e+11 2.089254e+11
1.640449e+00 1.614468e+11 2.039430e+11
1.665628e+00 1.575599e+11 1.990734e+11
1.691193e+00 1.537617e+11 1.943142e+11
1.717151e+00 1.500505e+11 1.896629e+11
1.743508e+00 1.464453e+11 1.850836e+11
1.770268e+00 1.429398e+11 1.806313e+11
1.797440e+00 1.395191e+11 1.762784e+11
1.825029e+00 1.361780e+11 1.720214e+11
1.853041e+00 1.329125e+11 1.678615e+11
1.881483e+00 1.297210e+11 1.637967e+11
1.910362e+00 1.266018e+11 1.598249e+11
1.939683e+00 1.235534e+11 1.559439e+11
1.969455e+00 1.205743e+11 1.521559e+11
1.999684e+00 1.176628e+11 1.484838e+11
2.030377e+00 1.148177e+11 1.448952e+11
2.061541e+00 1.120373e+11 1.413875e+11
2.093184e+00 1.093203e+11 1.379585e+11
2.125312e+00 1.066653e+11 1.346077e+11
2.157933e+00 1.040551e+11 1.313334e+11
2.191055e+00 1.015041e+11 1.281327e+11
2.224685e+00 9.901176e+10 1.249803e+11
2.258831e+00 9.657687e+10 1.218946e+11
2.293502e+00 9.419814e+10 1.188795e+11
2.328704e+00 9.187433e+10 1.159318e+11
2.364447e+00 8.960424e+10 1.130547e+11
2.400739e+00 8.738668e+10 1.102453e+11
2.437588e+00 8.522192e+10 1.074853e+11
2.475002e+00 8.311807e+10 1.047893e+11
2.512990e+00 8.106799e+10 1.021636e+11
2.551562e+00 7.906568e+10 9.959941e+10
2.590725e+00 7.710523e+10 9.709550e+10
2.630490e+00 7.517051e+10 9.465048e+10
2.670865e+00 7.328162e+10 9.226303e+10
2.711860e+00 7.144925e+10 8.993187e+10
2.753484e+00 6.965964e+10 8.765573e+10
2.795747e+00 6.791316e+10 8.543978e+10
2.838658e+00 6.620967e+10 8.328850e+10
2.882229e+00 6.454597e+10 8.118783e+10
2.926468e+00 6.292118e+10 7.913663e+10
2.971386e+00 6.132981e+10 7.713380e+10
3.016993e+00 5.977069e+10 7.517298e+10
3.063300e+00 5.825836e+10 7.325110e+10
3.110319e+00 5.676085e+10 7.137421e+10
3.158058e+00 5.530275e+10 6.954198e+10
3.206531e+00 5.388209e+10 6.776143e+10
3.255748e+00 5.249767e+10 6.602653e+10
3.305720e+00 5.114905e+10 6.432604e+10
3.356459e+00 4.984210e+10 6.266617e+10
3.407977e+00 4.856780e+10 6.104445e+10
3.460285e+00 4.732375e+10 5.947656e+10
3.513397e+00 4.610927e+10 5.794392e+10
3.567323e+00 4.491180e+10 5.643898e+10
3.622078e+00 4.374012e+10 5.497027e+10
3.677673e+00 4.260053e+10 5.353696e+10
3.734121e+00 4.148479e+10 5.213696e+10
3.791435e+00 4.040018e+10 5.076922e+10
3.849630e+00 3.934642e+10 4.943467e+10
3.908717e+00 3.831802e+10 4.813255e+10
3.968711e+00 3.731443e+10 4.686627e+10
4.029627e+00 3.633597e+10 4.563134e+10
4.091477e+00 3.538184e+10 4.442638e+10
4.154276e+00 3.445080e+10 4.325072e+10
4.218040e+00 3.354233e+10 4.210194e+10
4.282782e+00 3.265592e+10 4.097781e+10
4.348518e+00 3.179107e+10 3.988133e+10
4.415263e+00 3.094729e+10 3.881186e+10
4.483032e+00 3.012410e+10 3.776878e+10
4.551842e+00 2.932104e+10 3.675148e+10
4.621707e+00 2.853765e+10 3.576546e+10
4.692645e+00 2.777347e+10 3.481205e+10
4.764672e+00 2.701948e+10 3.388198e+10
4.837804e+00 2.628335e+10 3.297469e+10
4.912059e+00 2.557282e+10 3.208295e+10
4.987454e+00 2.488038e+10 3.121503e+10
5.064006e+00 2.420513e+10 3.036523e+10
5.141732e+00 2.354667e+10 2.953445e+10
5.220652e+00 2.290089e+10 2.873197e+10
5.300783e+00 2.227017e+10 2.795416e+10
5.382144e+00 2.165631e+10 2.719560e+10
5.464754e+00 2.105706e+10 2.645584e+10
5.548632e+00 2.047184e+10 2.572869e+10
5.633797e+00 1.990146e+10 2.501444e+10
5.720270e+00 1.934558e+10 2.431757e+10
5.808069e+00 1.880791e+10 2.363767e+10
5.897217e+00 1.828633e+10 2.297508e+10
5.987732e+00 1.777477e+10 2.233670e+10
6.079637e+00 1.727561e+10 2.171906e+10
6.172953e+00 1.678922e+10 2.111690e+10
6.267701e+00 1.631681e+10 2.052277e+10
6.363903e+00 1.585867e+10 1.994386e+10
6.461581e+00 1.541182e+10 1.938374e+10
6.560759e+00 1.497212e+10 1.883812e+10
6.661460e+00 1.454383e+10 1.830648e+10
6.763706e+00 1.412667e+10 1.778406e+10
6.867521e+00 1.372056e+10 1.727404e+10
6.972929e+00 1.332557e+10 1.677681e+10
7.079956e+00 1.294214e+10 1.629257e+10
7.188625e+00 1.257065e+10 1.582103e+10
7.298963e+00 1.220884e+10 1.536513e+10
7.410994e+00 1.185649e+10 1.492037e+10
7.524744e+00 1.151337e+10 1.448922e+10
7.640240e+00 1.117926e+10 1.406984e+10
7.757509e+00 1.085394e+10 1.366144e+10
7.876578e+00 1.053721e+10 1.326378e+10
7.997475e+00 1.022905e+10 1.287659e+10
8.120227e+00 9.929243e+09 1.249962e+10
8.244863e+00 9.633350e+09 1.213263e+10
8.371413e+00 9.343743e+09 1.177537e+10
8.499905e+00 9.062005e+09 1.142754e+10
8.630369e+00 8.787942e+09 1.108895e+10
8.762835e+00 8.526753e+09 1.075839e+10
8.897335e+00 8.275960e+09 1.043690e+10
9.033899e+00 8.026693e+09 1.012223e+10
9.172559e+00 7.784140e+09 9.818764e+09
9.313347e+00 7.549700e+09 9.524159e+09
9.456297e+00 7.321628e+09 9.237527e+09
9.601440e+00 7.099770e+09 8.958673e+09
9.748811e+00 6.883973e+09 8.685304e+09
9.898445e+00 6.674087e+09 8.416628e+09
1.005037e+01 6.469966e+09 8.157946e+09
1.020464e+01 6.271468e+09 7.908641e+09
1.036127e+01 6.078591e+09 7.666142e+09
1.052030e+01 5.889742e+09 7.430334e+09
1.068177e+01 5.706178e+09 7.201050e+09
1.084573e+01 5.527766e+09 6.978130e+09
1.101220e+01 5.354389e+09 6.761404e+09
1.118122e+01 5.185915e+09 6.550715e+09
1.135284e+01 5.022211e+09 6.345923e+09
1.152709e+01 4.863154e+09 6.146570e+09
1.170402e+01 4.707958e+09 5.952400e+09
1.188367e+01 4.556670e+09 5.762232e+09
1.206607e+01 4.409744e+09 5.577168e+09
1.225127e+01 4.267129e+09 5.397436e+09
1.243931e+01 4.130038e+09 5.222898e+09
1.263024e+01 3.996460e+09 5.053639e+09
1.282410e+01 3.867496e+09 4.890861e+09
1.302094e+01 3.742280e+09 4.732459e+09
1.322079e+01 3.620697e+09 4.579602e+09
1.342372e+01 3.502793e+09 4.429156e+09
1.362976e+01 3.388114e+09 4.282701e+09
1.383896e+01 3.276202e+09 4.140521e+09
1.405137e+01 3.167545e+09 4.004234e+09
1.426704e+01 3.062119e+09 3.872064e+09
1.448602e+01 2.959837e+09 3.742694e+09
1.470837e+01 2.860679e+09 3.617195e+09
1.493413e+01 2.764580e+09 3.495465e+09
1.516335e+01 2.671374e+09 3.377404e+09
1.539609e+01 2.580982e+09 3.262912e+09
1.563240e+01 2.493173e+09 3.151509e+09
1.587234e+01 2.407877e+09 3.044618e+09
1.611596e+01 2.324784e+09 2.941059e+09
1.636332e+01 2.243794e+09 2.840206e+09
1.661448e+01 2.165372e+09 2.740214e+09
1.686950e+01 2.089956e+09 2.643371e+09
1.712842e+01 2.017816e+09 2.551587e+09
1.739133e+01 1.947900e+09 2.463361e+09
1.765826e+01 1.880238e+09 2.377736e+09
1.792930e+01 1.813792e+09 2.293772e+09
1.820449e+01 1.749402e+09 2.211992e+09
1.848391e+01 1.687054e+09 2.132610e+09
1.876762e+01 1.626689e+09 2.056718e+09
1.905568e+01 1.568254e+09 1.983350e+09
1.934816e+01 1.511503e+09 1.911378e+09
1.964514e+01 1.456802e+09 1.841867e+09
1.994667e+01 1.403804e+09 1.775018e+09
2.025283e+01 1.352489e+09 1.710336e+09
2.056368e+01 1.302916e+09 1.647856e+09
2.087931e+01 1.254986e+09 1.587822e+09
2.119979e+01 1.208860e+09 1.529740e+09
2.152518e+01 1.164247e+09 1.473170e+09
2.185557e+01 1.121102e+09 1.418328e+09
2.219102e+01 1.079384e+09 1.366163e+09
2.253163e+01 1.039050e+09 1.315945e+09
2.287747e+01 9.998846e+08 1.267247e+09
2.322861e+01 9.619943e+08 1.219774e+09
2.358514e+01 9.250976e+08 1.173509e+09
2.394715e+01 8.894631e+08 1.128708e+09
2.431471e+01 8.550529e+08 1.085401e+09
2.468791e+01 8.218301e+08 1.043982e+09
2.506685e+01 7.897626e+08 1.004135e+09
2.545159e+01 7.590947e+08 9.652824e+08
2.584225e+01 7.296157e+08 9.275303e+08
2.623890e+01 7.011708e+08 8.910693e+08
2.664163e+01 6.737733e+08 8.562055e+08
2.705055e+01 6.473646e+08 8.226440e+08
2.746575e+01 6.217958e+08 7.897751e+08
2.788732e+01 5.971695e+08 7.584901e+08
2.831535e+01 5.732974e+08 7.283743e+08
2.874996e+01 5.502469e+08 6.994325e+08
2.919124e+01 5.281923e+08 6.718136e+08
2.963930e+01 5.068049e+08 6.451668e+08
3.009423e+01 4.861583e+08 6.194059e+08
3.055614e+01 4.662854e+08 5.940114e+08
3.102514e+01 4.472830e+08 5.693460e+08
3.150134e+01 4.289845e+08 5.459351e+08
3.198485e+01 4.113530e+08 5.234250e+08
3.247578e+01 3.942638e+08 5.017070e+08
3.297425e+01 3.777361e+08 4.805424e+08
3.348037e+01 3.619125e+08 4.603451e+08
3.399425e+01 3.467023e+08 4.409785e+08
3.451603e+01 3.319979e+08 4.223184e+08
3.504581e+01 3.177191e+08 4.043735e+08
3.558372e+01 3.041023e+08 3.871258e+08
3.612989e+01 2.910130e+08 3.706566e+08
3.668444e+01 2.783880e+08 3.547533e+08
3.724751e+01 2.662543e+08 3.394512e+08
3.781922e+01 2.546573e+08 3.246774e+08
3.839970e+01 2.434677e+08 3.104385e+08
3.898909e+01 2.326058e+08 2.967666e+08
3.958753e+01 2.223946e+08 2.835665e+08
4.019515e+01 2.125239e+08 2.709119e+08
4.081210e+01 2.028955e+08 2.587521e+08
4.143852e+01 1.937509e+08 2.471139e+08
4.207456e+01 1.849784e+08 2.359807e+08
4.272035e+01 1.765962e+08 2.252083e+08
4.337606e+01 1.686182e+08 2.150016e+08
4.404184e+01 1.609733e+08 2.052467e+08
4.471783e+01 1.535179e+08 1.958690e+08
4.540420e+01 1.463712e+08 1.868186e+08
4.610110e+01 1.395221e+08 1.781320e+08
4.680870e+01 1.329597e+08 1.698134e+08
4.752716e+01 1.266817e+08 1.618631e+08
4.825665e+01 1.206815e+08 1.541923e+08
4.899734e+01 1.149105e+08 1.468645e+08
4.974939e+01 1.093756e+08 1.398620e+08
5.051299e+01 1.041238e+08 1.331495e+08
5.128830e+01 9.910323e+07 1.267150e+08
5.207552e+01 9.427584e+07 1.205443e+08
5.287482e+01 8.970080e+07 1.146520e+08
5.368639e+01 8.529060e+07 1.090555e+08
5.451042e+01 8.107396e+07 1.036868e+08
5.534709e+01 7.704557e+07 9.857657e+07
5.619661e+01 7.319652e+07 9.367144e+07
5.705916e+01 6.951977e+07 8.898179e+07
5.793495e+01 6.600306e+07 8.450682e+07
5.882419e+01 6.263222e+07 8.026093e+07
5.972707e+01 5.942079e+07 7.620719e+07
6.064382e+01 5.635708e+07 7.232087e+07
6.157463e+01 5.343510e+07 6.855982e+07
6.251973e+01 5.064907e+07 6.505922e+07
6.347934e+01 4.801554e+07 6.169814e+07
6.445368e+01 4.550762e+07 5.845353e+07
6.544297e+01 4.308944e+07 5.535608e+07
6.644744e+01 4.078691e+07 5.241562e+07
6.746734e+01 3.860955e+07 4.963566e+07
6.850288e+01 3.655444e+07 4.700870e+07
6.955433e+01 3.459762e+07 4.450074e+07
7.062191e+01 3.273356e+07 4.211299e+07
7.170587e+01 3.093588e+07 3.982191e+07
7.280648e+01 2.924581e+07 3.764060e+07
7.392398e+01 2.762440e+07 3.556168e+07
7.505862e+01 2.609533e+07 3.358379e+07
7.621069e+01 2.464242e+07 3.171426e+07
7.738044e+01 2.326434e+07 2.995016e+07
7.856814e+01 2.194888e+07 2.826908e+07
7.977407e+01 2.068741e+07 2.666015e+07
8.099851e+01 1.950720e+07 2.515051e+07
8.224175e+01 1.837701e+07 2.370436e+07
8.350407e+01 1.730820e+07 2.234569e+07
8.478576e+01 1.628321e+07 2.105873e+07
8.608713e+01 1.532892e+07 1.983891e+07
8.740847e+01 1.443030e+07 1.867829e+07
8.875009e+01 1.357120e+07 1.757799e+07
9.011230e+01 1.275363e+07 1.653670e+07
9.149543e+01 1.199039e+07 1.555918e+07
9.289978e+01 1.126694e+07 1.462945e+07
9.432568e+01 1.057800e+07 1.374377e+07
9.577348e+01 9.932951e+06 1.291397e+07
9.724349e+01 9.321536e+06 1.212499e+07
9.873607e+01 8.739588e+06 1.138168e+07
1.002516e+02 8.195657e+06 1.068074e+07
1.017903e+02 7.682547e+06 1.001847e+07
1.033527e+02 7.198155e+06 9.385478e+06
1.049390e+02 6.738590e+06 8.799804e+06
1.065497e+02 6.305006e+06 8.242865e+06
1.081851e+02 5.871706e+06 7.715106e+06
1.098457e+02 5.480265e+06 7.216899e+06
1.115317e+02 5.115221e+06 6.746207e+06
1.132435e+02 4.773728e+06 6.307361e+06
1.149817e+02 4.457516e+06 5.893210e+06
1.167465e+02 4.155822e+06 5.502312e+06
1.185385e+02 3.871258e+06 5.132092e+06
1.203579e+02 3.609555e+06 4.784145e+06
1.222053e+02 3.356209e+06 4.459346e+06
1.240810e+02 3.117927e+06 4.152798e+06
1.259855e+02 2.898443e+06 3.866380e+06
1.279192e+02 2.690292e+06 3.598086e+06
1.298826e+02 2.493484e+06 3.343601e+06
1.318762e+02 2.314001e+06 3.108443e+06
1.339003e+02 2.147267e+06 2.883969e+06
1.359555e+02 1.985412e+06 2.670749e+06
1.380423e+02 1.839586e+06 2.473558e+06
1.401611e+02 1.705366e+06 2.289073e+06
1.423124e+02 1.580775e+06 2.116863e+06
1.444968e+02 1.462527e+06 1.961146e+06
1.467146e+02 1.351760e+06 1.811856e+06
1.489665e+02 1.246945e+06 1.674185e+06
1.512530e+02 1.150492e+06 1.545247e+06
1.535746e+02 1.064434e+06 1.426469e+06
1.559317e+02 9.818657e+05 1.319254e+06
1.583251e+02 9.064208e+05 1.218938e+06
1.607552e+02 8.351108e+05 1.126392e+06
1.632226e+02 7.726916e+05 1.040246e+06
1.657279e+02 7.135824e+05 9.610382e+05
1.682717e+02 6.598842e+05 8.858869e+05
1.708544e+02 6.088534e+05 8.167359e+05
1.734769e+02 5.623114e+05 7.537947e+05
1.761395e+02 5.188580e+05 6.972093e+05
1.788431e+02 4.784896e+05 6.429353e+05
1.815881e+02 4.405580e+05 5.937772e+05
1.843753e+02 4.064878e+05 5.483849e+05
1.872053e+02 3.757042e+05 5.057642e+05
1.900786e+02 3.467748e+05 4.671333e+05
1.929961e+02 3.199092e+05 4.321001e+05
1.959584e+02 2.949362e+05 3.994592e+05
1.989662e+02 2.717124e+05 3.692668e+05
2.020201e+02 2.500932e+05 3.408453e+05
2.051208e+02 2.306681e+05 3.148169e+05
2.082692e+02 2.120664e+05 2.905544e+05
2.114659e+02 1.954913e+05 2.679662e+05
2.147117e+02 1.800921e+05 2.468781e+05
2.180073e+02 1.657390e+05 2.278679e+05
2.213534e+02 1.528238e+05 2.104452e+05
2.247509e+02 1.405742e+05 1.945963e+05
2.282006e+02 1.294118e+05 1.799403e+05
2.317032e+02 1.191783e+05 1.660522e+05
2.352596e+02 1.096683e+05 1.534901e+05
2.388706e+02 1.009518e+05 1.416442e+05
2.425370e+02 9.291234e+04 1.305762e+05
2.462597e+02 8.549959e+04 1.204371e+05
2.500395e+02 7.872634e+04 1.110681e+05
2.538773e+02 7.235320e+04 1.023642e+05
2.577740e+02 6.648814e+04 9.448955e+04
2.617306e+02 6.115154e+04 8.728378e+04
2.657478e+02 5.615251e+04 8.060515e+04
2.698268e+02 5.157686e+04 7.445131e+04
2.739683e+02 4.739330e+04 6.884355e+04
2.781734e+02 4.351920e+04 6.351506e+04
2.824430e+02 3.991545e+04 5.861059e+04
2.867782e+02 3.663371e+04 5.405657e+04
2.911799e+02 3.362962e+04 4.998060e+04
2.956492e+02 3.088487e+04 4.616733e+04
3.001871e+02 2.834965e+04 4.264488e+04
3.047946e+02 2.600632e+04 3.936330e+04
3.094729e+02 2.385790e+04 3.637450e+04
3.142230e+02 2.194583e+04 3.358110e+04
3.190459e+02 2.016578e+04 3.098457e+04
3.239429e+02 1.850544e+04 2.865328e+04
3.289151e+02 1.699992e+04 2.643060e+04
3.339636e+02 1.561194e+04 2.440646e+04
3.390895e+02 1.431679e+04 2.247873e+04
3.442942e+02 1.313647e+04 2.073985e+04
3.495787e+02 1.204585e+04 1.911776e+04
3.549443e+02 1.103852e+04 1.757103e+04
3.603923e+02 1.011447e+04 1.616616e+04
3.659239e+02 9.271090e+03 1.491869e+04
3.715405e+02 8.477386e+03 1.375367e+04
3.772432e+02 7.750566e+03 1.267962e+04
3.830334e+02 7.099713e+03 1.169240e+04
3.889126e+02 6.525759e+03 1.078266e+04
3.948819e+02 5.993388e+03 9.934868e+03
4.009429e+02 5.481747e+03 9.147246e+03
4.070970e+02 5.014459e+03 8.425027e+03
4.133454e+02 4.579919e+03 7.766802e+03
4.196898e+02 4.204455e+03 7.156073e+03
4.261316e+02 3.857489e+03 6.589009e+03
4.326722e+02 3.521823e+03 6.073840e+03
4.393133e+02 3.215493e+03 5.594111e+03
4.460562e+02 2.939809e+03 5.153061e+03
4.529027e+02 2.691340e+03 4.741255e+03
4.598542e+02 2.463510e+03 4.362825e+03
4.669125e+02 2.253021e+03 4.010692e+03
4.740790e+02 2.060473e+03 3.689811e+03
4.813556e+02 1.884114e+03 3.395053e+03
4.887439e+02 1.721618e+03 3.122398e+03
4.962456e+02 1.571466e+03 2.870278e+03
5.038624e+02 1.436103e+03 2.640845e+03
5.115961e+02 1.312485e+03 2.432331e+03
5.194485e+02 1.196861e+03 2.242324e+03
5.274215e+02 1.093853e+03 2.062824e+03
5.355168e+02 9.997644e+02 1.897507e+03
5.437364e+02 9.130420e+02 1.744620e+03
5.520821e+02 8.344292e+02 1.603827e+03
5.605559e+02 7.637514e+02 1.474187e+03
5.691598e+02 6.990039e+02 1.354831e+03
5.778958e+02 6.373924e+02 1.244643e+03
5.867659e+02 5.814798e+02 1.141668e+03
5.957720e+02 5.308720e+02 1.050393e+03
6.049165e+02 4.851086e+02 9.638378e+02
6.142013e+02 4.427958e+02 8.856082e+02
6.236286e+02 4.037101e+02 8.134516e+02
6.332005e+02 3.676538e+02 7.468495e+02
6.429195e+02 3.347597e+02 6.855947e+02
6.527876e+02 3.047642e+02 6.292658e+02
6.628071e+02 2.774695e+02 5.773412e+02
6.729804e+02 2.524067e+02 5.299561e+02
6.833099e+02 2.298803e+02 4.866954e+02
6.937980e+02 2.095272e+02 4.470637e+02
7.044470e+02 1.910142e+02 4.106515e+02
7.152595e+02 1.737192e+02 3.767454e+02
7.262379e+02 1.579954e+02 3.455881e+02
7.373848e+02 1.437626e+02 3.170267e+02
7.487028e+02 1.306309e+02 2.908114e+02
7.601946e+02 1.191456e+02 2.669390e+02
7.718627e+02 1.085687e+02 2.454606e+02
7.837099e+02 9.862735e+01 2.245694e+02
7.957390e+02 8.945208e+01 2.056990e+02
8.079527e+02 8.114367e+01 1.884622e+02
8.203539e+02 7.378603e+01 1.723948e+02
8.329454e+02 6.711497e+01 1.579305e+02
8.457301e+02 6.100415e+01 1.444281e+02
8.587111e+02 5.545980e+01 1.322389e+02
8.718914e+02 5.029616e+01 1.211993e+02
8.852739e+02 4.568661e+01 1.111009e+02
8.988619e+02 4.152482e+01 1.017815e+02
9.126584e+02 3.773455e+01 9.317218e+01
9.266667e+02 3.428148e+01 8.520790e+01
9.408900e+02 3.109339e+01 7.795904e+01
9.553316e+02 2.812193e+01 7.131349e+01
9.699948e+02 2.541719e+01 6.522213e+01
9.848832e+02 2.297551e+01 5.963975e+01
1.000000e+03 2.082416e+01 5.452474e+01
